-0.34090954,-1.7110015,-3.4240738,-2.152835,-1.7474247,-1.4060322,-0.40740913,-1.7535639,-2.4333543,-0.89266452,0.67462169,0.45153755,0.46551865,-0.076130454,-0.66425348,-1.2081157,-0.51115022,1.6387124,-0.64745486,-1.6698666,-0.74038664,-0.69924298,0.37227637,0.16178595,-1.17264,-0.71848908,1.8095423,0.010359525,-1.1241659,0.62170784,0.098617436,0.27461988,-0.95071744,-2.4924403,-0.4571527,-0.41290265,-0.81975673,-0.73656785,1.2451721,0.24027318,-1.712634,-0.57254915,-0.07672439,-0.21620712,-1.7291799,0.53277971,1.7531018,-1.0629718,-0.61666085,1.1318439,0.93353562,-0.97529073,-1.2232098,0.13945194,0.12996751,-0.055554052,1.0037703,-1.1941573,-0.071397915,0.62085587,-0.77222205,0.36658856,1.0853388,0.036862009,0.089183199,-0.028491993,0.21308086,0.8375961,0.0079837423,-0.097546195,-0.34055232,0.23007449,0.21089882,1.1785045,0.20617355,-0.506373,0.36012109,0.16505254,0.77278449,0.73317844,0.48227372,-0.025639033,-0.25015102,-0.2692608,0.28320445,0.92129948,1.4217527,0.7104685,-1.2510366,-0.49944257,0.38856213,0.4553264,0.40344429,0.47610599,0.06011708,0.21324589,0.89100884,0.19840868,0.46459082,0.74176549,0.64078734,1.0137924,1.3850456,0.22356434,1.7872519,2.9593237,0.10667143,-0.40214704,1.015946,1.428355,0.73060459,0.90340466,0.60647692,-0.013580252,-1.0316801,0.42430104,0.90641245,-1.9263364,-0.33216794,0.44815071,-0.16872166,-0.39027819,0.21364435,0.69924183,-0.54796628,-1.1666266,-0.40995402,1.1178553,1.2067864,-1.9084579,-0.51492214,1.7912186,1.375922,0.56148132,1.3251821,0.46330121,-0.56276386,0.73316969,0.50662582,0.80399311
0.91321865,-1.3063914,-3.023062,-4.3076114,-4.2624892,-3.4470921,-2.5212222,-1.6772708,-1.4983053,-0.88499573,-0.36368831,-0.29759313,-0.30285389,-0.43493371,-0.25350147,-0.28725827,-0.35198522,-0.30329852,-0.36733294,-0.39234703,-0.47810007,-0.38167521,-0.3965527,-0.48437155,-0.54592537,-0.5364377,-0.57892027,-0.63208091,-0.61751909,-0.67487097,-0.69215998,-0.79662523,-0.8355807,-0.81584404,-1.0458986,-0.99724608,-0.95843301,-1.0355741,-0.96678691,-0.94599689,-0.83363624,-0.72102084,-0.71303644,-0.59291743,-0.51249396,-0.43454198,-0.38436771,-0.23151695,-0.26046144,-0.16631787,-0.15310187,-0.0034535042,-0.070028249,-0.016405552,-0.041442116,-0.035598265,-0.064096077,0.002507822,0.083697926,0.040846145,0.1442157,0.17205338,0.12776294,0.1674788,0.17186851,0.19562903,0.1661332,0.35211418,0.42101527,0.4363245,0.46064842,0.48379219,0.48726268,0.55185686,0.62204911,0.52718917,0.58196671,0.58223116,0.57576738,0.50509499,0.48898305,0.53030568,0.4654091,0.42891055,0.50075998,0.5246771,0.487358,0.43932463,0.46692432,0.35884516,0.3386969,0.43593081,0.36261807,0.37165836,0.36015096,0.41256622,0.58061605,0.70093287,0.86858078,0.99768833,1.1572978,1.3374486,1.582609,1.8132017,1.7791004,1.7921626,1.71936,1.4539747,1.2736036,1.0719358,0.87521469,0.49767117,0.17507172,-0.06204778,-0.1256318,-0.19903849,-0.21503804,-0.16788859,-0.22600767,-0.23784299,-0.19781243,-0.25047214,-0.1790675,-0.11369114,-0.15791025,-0.17544095,-0.086576615,-0.042435992,0.038030504,0.26792583,0.8551522,1.0667655,1.0281023,1.1394893,1.2038263,1.1996719,1.1980248,1.4791949,2.2018471,1.2708269
-0.77904038,-2.4523085,-3.1374427,-3.9903807,-4.2772606,-3.9208714,-2.8817085,-1.8637703,-1.5128344,-1.0277146,-0.35619268,-0.30665901,-0.34191731,-0.22786834,-0.19933773,-0.20187628,-0.23386992,-0.12227718,-0.14230773,-0.14791693,-0.14874619,-0.11865365,-0.20968048,-0.13260798,-0.14676284,-0.11373106,-0.17112896,-0.19427471,-0.15685697,-0.25458433,-0.24540457,-0.25623025,-0.31381322,-0.24073274,-0.22317817,-0.23546776,-0.17059195,-0.20896685,-0.19063774,-0.18398771,-0.12666461,-0.044834305,-0.012424301,-0.04058268,0.088189139,0.080570717,0.24803179,0.18283773,0.14101839,0.12601517,0.13804179,0.26185226,0.21530981,0.15839702,0.20629373,0.24298909,0.18903664,0.090462392,0.12070899,0.15704713,0.23988613,0.20669277,0.19567808,0.094103438,0.23061789,0.16668229,0.22164611,0.31829474,0.35029932,0.36760109,0.38373723,0.46427216,0.44914879,0.54849558,0.73999163,0.62954891,0.56188232,0.54076107,0.64471243,0.6608241,0.48249737,0.57332044,0.62140129,0.52992459,0.4887855,0.50041119,0.49387009,0.53548378,0.46877599,0.47091708,0.53994725,0.50769698,0.55034726,0.46702803,0.67623309,0.78584572,0.94293484,1.215012,1.2187531,1.5134197,1.8024788,2.0173198,1.9635896,1.9175858,1.8457491,1.657224,1.4816496,1.1677596,0.92480755,0.65455625,0.27693773,-0.078329807,-0.1611968,-0.27063495,-0.36271852,-0.27655031,-0.23707643,-0.16460365,-0.27414199,-0.22803686,-0.25612553,-0.31391801,-0.28896827,-0.32859482,-0.23177016,-0.32229708,-0.23875549,-0.04910167,0.46604583,1.1423323,1.2428756,0.88873847,0.22656137,-0.6385061,-1.112825,-1.2630839,-0.97825512,-0.57501298,-0.77703188,-2.2288599
-0.75777434,-2.4561574,-3.0004662,-3.8505366,-4.1974143,-3.7038695,-2.7013653,-1.8704006,-1.6046021,-0.82617238,-0.39975738,-0.44030215,-0.38572848,-0.44961854,-0.42754487,-0.42360705,-0.42840073,-0.4349999,-0.42602448,-0.38614738,-0.49646048,-0.6951878,-0.51174199,-0.59556122,-0.47898564,-0.41296944,-0.37746785,-0.43693318,-0.61465955,-0.45970183,-0.5262686,-0.68547123,-0.32218213,-0.37293994,-0.38423008,-0.3506142,-0.35669398,-0.24465692,-0.29888877,-0.30096795,-0.30559181,-0.40893305,-0.44644131,-0.39017169,-0.10055869,-0.13086744,-0.19139667,-0.094027463,-0.098168145,-0.044055397,0.019456375,0.038974108,-0.020638303,-0.032651152,0.0032203899,0.029059924,0.050768926,0.0079236587,0.016697456,-0.057143563,-0.0074086506,0.09333899,-0.053034976,0.0024383881,0.19017371,0.22437783,0.18678972,0.19793,0.15853208,0.18224736,0.19617958,0.20617897,0.32054131,0.37213033,0.4920677,0.47477888,0.42573898,0.61678127,0.77158374,0.77909727,0.65932839,0.62942875,0.56987336,0.68148646,0.68724621,0.70580267,0.66715501,0.50203038,0.6087006,0.60851408,0.50688937,0.47173658,0.38004409,0.4229054,0.50801254,0.61075768,0.69757867,0.89769859,0.9723762,1.1497064,1.6546328,1.9160591,2.1016082,2.2386859,2.1959083,1.9220591,1.8444445,1.637005,1.2101557,0.97166066,0.56086894,0.19730413,-0.10138257,-0.087009883,0.035901117,0.053588273,0.070130527,-0.083023472,-0.060977138,0.065914288,0.074182815,-0.15683015,-0.19034031,-0.040980343,0.052256403,0.13844757,-0.11045476,0.14408558,0.96013618,1.6181499,1.5154274,1.1890296,0.87485318,0.34750209,-0.12237528,-0.62552968,-0.50008862,-0.30172518,-0.21155539,-1.517442
-1.8563689,-4.3123015,-4.9721319,-4.4064735,-3.2546343,-2.1455444,-1.4457115,-1.0735402,-0.18728679,0.009237085,-0.016065602,0.030316013,0.01385036,0.06013068,-0.057000126,-0.10681038,-0.0058625766,-0.076823308,-0.072029039,-0.23074975,-0.19856039,-0.29004435,-0.2587364,-0.31454489,-0.26419968,-0.34860312,-0.38736078,-0.39835457,-0.50808781,-0.4925191,-0.62289496,-0.70380178,-0.8153422,-0.68630559,-0.70338515,-0.66512082,-0.61489017,-0.7240431,-0.65731848,-0.66190279,-0.57524666,-0.36490025,-0.24968765,-0.29429046,-0.17419796,-0.23278824,-0.13411232,-0.16805315,0.0061553819,0.021185698,0.0577886,0.12448563,0.053633925,0.099366446,0.18167811,0.12949145,0.074275179,0.12692911,0.092121881,0.13993731,0.22235091,0.20602322,0.18279925,0.25547134,0.35377583,0.29838594,0.51040231,0.53515611,0.54699852,0.7129432,0.61495032,0.72373261,0.72487326,0.81504885,0.71181001,0.76396996,0.73581574,0.62197778,0.71271335,0.63180008,0.58898582,0.73609296,0.57175475,0.50409841,0.4845546,0.4050415,0.41602809,0.34133035,0.46153426,0.47437476,0.41767345,0.33825376,0.25980835,0.26525334,0.34330623,0.504843,0.59139712,0.73006821,0.89617274,1.1298618,1.2350488,1.4912573,1.7822701,1.7007098,1.7814349,1.6647755,1.4901096,1.2989438,1.0789688,0.77807192,0.45795595,0.11449137,-0.23002114,-0.49141315,-0.51840966,-0.4999794,-0.50102614,-0.51262568,-0.51966038,-0.48705021,-0.65324344,-0.55078195,-0.61796293,-0.65407488,-0.53467091,-0.5931129,-0.64633609,-0.61125663,-0.40816964,0.0081784275,0.56236112,0.64591027,0.52570907,0.87887142,1.0835693,0.88463241,0.75869248,0.51854491,1.2305274,1.2253723
-2.2753192,-4.4068889,-4.6239207,-4.1596959,-3.0029847,-1.9158283,-1.5424969,-1.1614251,-0.45337958,-0.46544719,-0.37228857,-0.39631412,-0.36427541,-0.4516169,-0.34012633,-0.39313702,-0.46540574,-0.41551113,-0.441997,-0.40515326,-0.43418343,-0.4815484,-0.481415,-0.52400977,-0.50426914,-0.59377751,-0.55346503,-0.56428257,-0.59851073,-0.69972311,-0.81217071,-0.77799045,-0.72232124,-0.8083126,-0.70291388,-0.7581693,-0.69849554,-0.56714729,-0.59111217,-0.47383099,-0.36737063,-0.25864327,-0.20250662,-0.17026826,-0.056245879,0.078327206,0.065359351,0.091761957,0.05727613,0.10734383,0.071488721,0.082727525,0.093825961,0.1347672,0.17807415,0.091490399,0.17890167,0.16500614,0.17351729,0.2369998,0.16395852,0.24227897,0.1911329,0.22559547,0.39872949,0.35757954,0.35663872,0.39567216,0.47383673,0.58681378,0.58568173,0.55881159,0.67669984,0.66139348,0.77776115,0.72788839,0.69843463,0.69540783,0.55608048,0.61334561,0.52775383,0.57115475,0.55046533,0.48176705,0.45574764,0.41887035,0.40314389,0.38100887,0.41659243,0.48959488,0.37327257,0.39573489,0.33528735,0.45635962,0.48380406,0.68992524,0.87203166,0.99513769,1.075346,1.2709957,1.6317755,1.8730562,1.9137861,1.8969977,1.8614542,1.6546029,1.476527,1.2547066,0.90442782,0.61333107,0.24107767,-0.08670483,-0.31479287,-0.33529472,-0.4257663,-0.41435889,-0.31390933,-0.34625461,-0.39674891,-0.3244732,-0.40418319,-0.38250233,-0.38988097,-0.36438314,-0.28491038,-0.37476324,-0.26326019,-0.11683293,0.1975119,0.89908882,1.0766818,0.88933986,0.90863124,0.77011437,0.73799053,0.43015258,0.62131608,1.1845141,1.1652146,-0.60198526
1.3836421,0.2689289,-1.6144931,-3.3132722,-3.4586285,-2.9342483,-2.3924276,-1.6827726,-1.6036056,-1.3182721,-0.85455836,-0.82932821,-0.83655733,-0.79415034,-0.77192288,-0.81626622,-0.83923091,-0.76579819,-0.79940862,-0.7385688,-0.76357752,-0.80339021,-0.76829784,-0.81176957,-0.79016561,-0.84740773,-0.8960014,-0.90621056,-1.0035465,-1.0218898,-1.0002717,-1.0562461,-1.0786542,-1.1630086,-1.1134781,-1.1744097,-1.1914427,-1.0993011,-1.0921368,-1.0617938,-0.99733338,-0.94656087,-0.8746455,-0.78189797,-0.60950465,-0.47497311,-0.40994358,-0.3764447,-0.32552888,-0.22316794,-0.26005027,-0.19939382,-0.13891757,-0.16009389,-0.14272765,-0.14703369,-0.069696823,-0.087519101,-0.080530297,-0.021709747,-0.035435107,0.047381737,0.018156572,0.065249824,0.071520031,0.082900179,0.13856813,0.19568603,0.21147805,0.26280825,0.25746725,0.30911778,0.28768603,0.34910656,0.41074464,0.45095036,0.40376999,0.41870344,0.43486062,0.41927625,0.52771547,0.42939176,0.49848136,0.4500937,0.40578112,0.47498616,0.39565697,0.38832685,0.3865433,0.38825046,0.43541376,0.40162218,0.44811406,0.43943506,0.41466473,0.48579849,0.50833742,0.67301483,0.78369227,0.86962525,1.0004742,1.166856,1.3757115,1.5222403,1.6285252,1.6199069,1.6248142,1.4082531,1.291373,1.1380489,0.8825327,0.77023292,0.51363201,0.26001367,0.18563934,0.21020967,0.20260963,0.15105122,0.22342403,0.24885009,0.15161793,0.19976471,0.21709182,0.25952367,0.30521427,0.30226106,0.2955652,0.34990928,0.43076435,0.65691158,1.0141697,1.0515274,0.94757215,1.3584838,1.6927554,1.7367894,1.8203892,2.0606651,2.5754988,2.2257965
0.12377935,-2.4655626,-4.0060988,-4.2653416,-4.1714298,-3.5154028,-2.2491865,-1.5674715,-1.3198756,-0.52340461,-0.16886513,-0.15490853,-0.19981732,-0.10065633,-0.1600797,-0.26531187,-0.31094529,-0.19035245,-0.26978454,-0.26741759,-0.24481466,-0.34176694,-0.38891436,-0.37978866,-0.3764051,-0.34806567,-0.53431103,-0.54976298,-0.61282132,-0.73353773,-0.66573877,-0.73506961,-0.77233012,-0.85697717,-0.78238173,-0.80103267,-0.88794702,-0.74374898,-0.67829513,-0.73669987,-0.60759553,-0.49355748,-0.3645669,-0.28870371,-0.27097707,-0.12067652,-0.15946345,-0.12462745,-0.009091679,0.056331431,-0.015987751,-0.017071127,0.073307058,0.092894298,0.14133726,0.1561657,0.20238368,0.22456392,0.16593394,0.24353818,0.23426479,0.25384872,0.43310355,0.3323785,0.21859903,0.2914087,0.40818412,0.462725,0.44899181,0.55649511,0.59495229,0.51236402,0.51036163,0.54867371,0.61855154,0.63831946,0.54220501,0.47215127,0.53928961,0.483069,0.48261084,0.55107384,0.45005859,0.5141965,0.43845311,0.49433841,0.39996782,0.29143736,0.29448704,0.25501077,0.30209756,0.32012735,0.30239308,0.33129116,0.36873159,0.46077928,0.68273407,0.66281026,0.90261886,1.0873966,1.1943265,1.4498866,1.7852649,1.8698323,1.7771591,1.6944387,1.4360647,1.2455767,0.98413982,0.78765888,0.52361026,0.12473819,-0.27395147,-0.28712133,-0.41402813,-0.44272907,-0.44328375,-0.42118328,-0.3299684,-0.28569642,-0.29241503,-0.34776733,-0.41866098,-0.50328267,-0.42977887,-0.34192846,-0.3863041,-0.28373853,-0.16156413,0.28662325,0.94840413,1.0808278,1.2630511,1.4752651,1.5841807,1.1312697,0.93228802,1.2789293,1.839656,0.012065128
-0.1052722,-2.5354764,-3.9818142,-4.9687855,-4.2888147,-3.296377,-1.8721854,-1.5327273,-1.0894104,-0.32263457,-0.24862503,-0.24519466,-0.24640201,-0.24164238,-0.20895044,-0.22552807,-0.2671917,-0.24778844,-0.20560572,-0.30088764,-0.41412898,-0.28460313,-0.43283247,-0.3793305,-0.32890339,-0.39640486,-0.46078535,-0.44127919,-0.4143134,-0.42953512,-0.57312095,-0.51498354,-0.59760506,-0.64586221,-0.67225472,-0.79395201,-0.64926692,-0.71126561,-0.69718473,-0.75207259,-0.70455292,-0.70451736,-0.68974604,-0.44720896,-0.46412844,-0.36139334,-0.2213943,-0.13054451,-0.08889849,-0.082159748,-0.0065892683,-0.036361703,0.036183941,0.065513401,0.15319937,0.038330524,0.16167213,0.20223565,0.12370826,0.13428166,0.14137427,0.27712941,0.26971559,0.2703138,0.18906772,0.29897892,0.23107411,0.35552038,0.42551184,0.40213976,0.50460035,0.49722138,0.63587265,0.59177401,0.6132681,0.76274998,0.77145823,0.72391814,0.72143037,0.66902402,0.70206697,0.63937824,0.66673199,0.59067706,0.55073931,0.51803213,0.50603334,0.5033673,0.42837756,0.42868227,0.380768,0.40971441,0.48742584,0.48520907,0.43313581,0.42079801,0.51199006,0.65798112,0.78431836,0.94878238,1.0941,1.1949767,1.5817067,1.7362793,1.9638117,1.8019861,1.8281929,1.6809581,1.4909479,1.2626288,0.84890527,0.59479754,0.15583198,-0.13291622,-0.18115935,-0.27229132,-0.26881379,-0.17210163,-0.24092485,-0.28039288,-0.21984887,-0.25775606,-0.21561604,-0.29727762,-0.26699999,-0.2461042,-0.22976685,-0.089618072,0.045703317,0.53975786,1.3111593,1.1934682,1.0650136,0.76328428,0.46435207,0.14582048,0.21586692,0.57702765,0.72348866,-1.2714612
-2.1621745,-4.5594871,-4.5963616,-4.5352528,-3.1712624,-1.8887517,-1.378542,-0.95275683,-0.018912341,0.007724445,-0.032303586,0.017819926,-0.036721776,-0.019238615,0.13889897,-0.050602622,-0.056179556,-0.078807456,-0.15950718,-0.13331747,-0.15795179,-0.20609018,-0.20550099,-0.26091238,-0.2742254,-0.33453463,-0.39889826,-0.59619671,-0.61843712,-0.6004762,-0.51549841,-0.52339442,-0.56938544,-0.60962889,-0.72882526,-0.73829347,-0.75012271,-0.80031571,-0.73344426,-0.60501785,-0.53642004,-0.54578706,-0.4237894,-0.27195163,-0.24643146,-0.18071944,-0.046621574,-0.097844412,-0.02479794,0.086763903,0.10152747,0.099939981,0.011273492,0.091786408,0.026390924,0.07171668,0.10555227,0.099300325,0.16255572,0.10332488,0.14948556,0.19925239,0.26480066,0.26749319,0.36764978,0.35316284,0.31108257,0.29995423,0.49096348,0.42264642,0.45720892,0.73381122,0.62869749,0.58788582,0.47843169,0.44089443,0.46295491,0.5854438,0.63999455,0.65885025,0.60934613,0.40797375,0.49745398,0.51153681,0.44761086,0.34323699,0.42204748,0.31914916,0.45950112,0.38704957,0.42307409,0.48588258,0.32384867,0.24699256,0.34427501,0.32623788,0.36276719,0.4771082,0.53480417,0.6999859,0.93736572,1.3193868,1.4080703,1.611402,1.8004722,1.8209158,1.5236931,1.5584215,1.386474,1.3499001,0.94327587,0.56998702,0.35872299,-0.12862026,-0.24098668,-0.22222919,-0.38470533,-0.45766665,-0.25256191,-0.42748227,-0.3255233,-0.21777397,-0.42651838,-0.40155664,-0.43155105,-0.20110594,-0.26190926,-0.35149184,-0.249452,0.36356555,1.1118429,1.6946315,1.5705272,1.8159902,1.5970311,0.4476622,-0.39900752,-0.78445647,-0.11292088,-1.0352477
-2.1676751,-4.4345134,-4.3822126,-4.3909637,-3.1910079,-2.0284574,-1.7826774,-1.446181,-0.49536257,-0.281963,-0.26442876,-0.30336806,-0.22256147,-0.20661689,-0.20487261,-0.26286923,-0.37400854,-0.3211816,-0.37963002,-0.31591843,-0.42620174,-0.37574364,-0.41584281,-0.46006666,-0.48550143,-0.59409727,-0.55378681,-0.53866144,-0.67729509,-0.75384255,-0.64981622,-0.70511198,-0.82169177,-0.83529945,-0.87110439,-0.84679927,-0.86926623,-0.81186971,-0.71229472,-0.63088764,-0.62252012,-0.55945789,-0.37585258,-0.26988158,-0.20568307,-0.031782584,-0.055882756,0.00017326916,0.037745812,0.11165296,0.096173339,0.13302034,0.12627394,0.019472826,0.13510627,0.13644155,0.20767315,0.21405736,0.24138607,0.27079866,0.28494861,0.27828976,0.28550821,0.35800479,0.35579774,0.43490628,0.50467788,0.51427033,0.56950699,0.63913623,0.66554063,0.64872751,0.70312808,0.68998137,0.67006252,0.63211478,0.63783039,0.60209369,0.56757737,0.56041848,0.46527526,0.55616766,0.5151793,0.46973285,0.36796191,0.41396852,0.40809658,0.2871739,0.28214898,0.29139102,0.34895518,0.26360183,0.28973584,0.31404457,0.24905643,0.24722874,0.27739247,0.34464931,0.5351965,0.79056819,0.94834199,1.175876,1.2072205,1.4793022,1.7437039,1.8947479,1.7406888,1.7216419,1.5408639,1.3022689,1.2367818,0.94123163,0.63563737,0.059044739,-0.1946654,-0.28695507,-0.31031008,-0.21148203,-0.24441661,-0.31166807,-0.26084315,-0.24983156,-0.15843636,-0.23443556,-0.130235,-0.24859341,-0.19002961,-0.16143878,-0.13522515,-0.049475901,0.19135119,0.95420511,1.5695372,1.3814559,1.5070136,0.9535681,0.42158344,0.042840885,0.56124424,0.73057946
0.55986768,-1.9174373,-3.7730267,-4.4468968,-4.1651951,-3.5737343,-2.3699697,-1.6243252,-1.4492862,-0.63508319,-0.23810889,-0.27986445,-0.20906376,-0.17738409,-0.32636138,-0.34648086,-0.26389646,-0.38387212,-0.3567487,-0.38003236,-0.41372352,-0.37553796,-0.39598055,-0.46138328,-0.49932932,-0.56486901,-0.62327433,-0.58453623,-0.63553246,-0.65584569,-0.71782168,-0.78503253,-0.78863687,-0.79352652,-0.76329533,-0.9599529,-0.80833697,-0.84713201,-0.80281471,-0.67060799,-0.75474316,-0.65512186,-0.5040145,-0.51798341,-0.36106889,-0.26245787,-0.17618281,-0.11552373,-0.021025745,0.057094472,0.019512638,-0.01575969,0.036189685,0.044739256,0.12105837,0.13525877,0.16971279,0.18659045,0.14141407,0.17305528,0.14543084,0.16628391,0.18785189,0.22945757,0.24414997,0.34929448,0.34814474,0.31172049,0.39048578,0.40236397,0.43269132,0.52045468,0.56706177,0.59133461,0.60500984,0.59548558,0.6789487,0.5383298,0.63397785,0.52131485,0.53659046,0.5045305,0.46803584,0.5718849,0.53461694,0.39736894,0.40061983,0.37553167,0.36473069,0.25986261,0.33051544,0.35647683,0.2679429,0.31370155,0.28182934,0.4456106,0.4766606,0.69286151,0.88192509,1.0076468,1.2459002,1.3356389,1.6587128,1.8226091,1.5707289,1.6490943,1.5721954,1.3206392,1.0754222,0.84697029,0.62950541,0.38560052,0.016238051,-0.26274785,-0.19494771,-0.23534699,-0.23389686,-0.24541284,-0.27929317,-0.30761214,-0.32187219,-0.25046465,-0.24105088,-0.29019516,-0.19485077,-0.22885899,-0.2369777,-0.25104979,-0.10387063,0.12157811,0.69278077,1.0147472,0.90943954,1.2192944,1.5392589,1.5145877,1.325826,1.092091,1.607787,1.5863922
-2.3310557,-4.5644925,-4.3724158,-3.891348,-2.8910497,-1.9734364,-1.6704087,-1.291997,-0.48781681,-0.35629707,-0.32117311,-0.45460578,-0.44512551,-0.4074224,-0.45069157,-0.28383465,-0.33545863,-0.34404411,-0.47424514,-0.45113088,-0.46222648,-0.52446207,-0.46335566,-0.55858954,-0.57044374,-0.61018893,-0.64958116,-0.57839298,-0.67242819,-0.75978829,-0.65385116,-0.82330908,-0.84582546,-0.69585388,-0.85261728,-0.82628024,-0.78771922,-0.73862106,-0.68816866,-0.66055555,-0.5290287,-0.41144484,-0.40354373,-0.18974882,-0.13473273,-0.11678927,-0.017649325,-0.035439929,0.013803694,0.090444824,0.11502174,0.24589326,0.21872711,0.18848643,0.11334656,0.218176,0.27848437,0.20757229,0.26012854,0.30839904,0.31329936,0.19341643,0.31201172,0.36201365,0.37562091,0.4756826,0.4307492,0.425244,0.5398951,0.59960267,0.55040322,0.66827851,0.77027995,0.68009592,0.65851974,0.70214763,0.6618763,0.72525672,0.66424296,0.55396321,0.65222618,0.55601689,0.5070776,0.45391341,0.40902431,0.44093704,0.40119553,0.63863419,0.46089345,0.38735804,0.43185938,0.34958476,0.39698064,0.47671917,0.40889556,0.63718776,0.83860218,0.99895605,1.0052477,1.1033326,1.4935494,1.6548343,1.8185481,1.8562585,1.8101046,1.6064075,1.4531121,1.2153839,0.9660323,0.72281292,0.46344677,-0.059971607,-0.27548784,-0.24204098,-0.41436422,-0.39914907,-0.40731311,-0.34572312,-0.42344096,-0.38601102,-0.33318237,-0.29367674,-0.33152472,-0.39170673,-0.31283567,-0.33640027,-0.44657335,-0.27819633,0.29345602,0.76340529,0.77490219,0.8367154,0.8391779,1.0008051,0.96192351,0.53435252,0.71951906,1.5002795,1.5871078,-0.61157751
-0.65247975,-2.3451085,-3.5756666,-4.4849409,-4.1458031,-3.2318592,-2.0230824,-1.5760468,-1.2399745,-0.45449415,-0.17785877,-0.24697095,-0.32314677,-0.2489909,-0.25678044,-0.24228021,-0.16273535,-0.20601273,-0.14771444,-0.15968859,-0.23057175,-0.27614089,-0.30878882,-0.2796633,-0.35185586,-0.3357203,-0.40453102,-0.4454391,-0.45747783,-0.49466356,-0.50316006,-0.52334647,-0.5937946,-0.67549481,-0.68204921,-0.76904853,-0.80355696,-0.84778023,-0.89441344,-0.84941435,-0.85054207,-0.80432762,-0.78958833,-0.70020955,-0.75151434,-0.60479348,-0.52431595,-0.4540494,-0.30180341,-0.18045877,-0.08759627,-0.048052671,-0.067552293,-0.025442085,0.030403954,0.050183145,0.11500546,0.017552426,0.039589894,0.10269849,0.11221314,0.094710155,0.070729704,0.12003777,0.26640781,0.15410063,0.26749364,0.22168066,0.27016979,0.30245792,0.39906971,0.40499109,0.38265082,0.46063562,0.54361418,0.54094113,0.64409539,0.59748838,0.58263883,0.55676586,0.60559014,0.66510462,0.62060149,0.63712563,0.54911951,0.4323711,0.49335349,0.4179389,0.37622859,0.42684042,0.44558167,0.51689563,0.56441279,0.55860717,0.71530832,0.84805447,0.86045154,1.1560438,1.4579537,1.7378001,1.9973512,2.1355875,2.0800714,1.8525994,1.706166,1.6425255,1.2592516,0.98509393,0.58139523,0.18420773,0.075014841,-0.20313557,-0.073924861,-0.13384632,-0.21653613,-0.19195152,-0.17805132,-0.17463478,-0.20164381,-0.19556909,-0.18156501,-0.04096511,-0.0450051,-0.12075624,-0.11814273,-0.02038621,0.21888108,0.58681441,1.3376317,1.2298328,0.84489019,0.87115391,1.1856502,1.1755605,0.92101662,0.57531672,0.45497214,0.75122224,0.34561301,-1.5166222
-0.22714914,-1.8472251,-2.9837307,-3.7149903,-3.8332664,-3.5166692,-2.8139958,-1.9071815,-1.677276,-1.2779801,-0.56449964,-0.40064955,-0.71661187,-0.75638697,-0.52083924,-0.58436582,-0.47475525,-0.43152112,-0.52005498,-0.53968014,-0.4235982,-0.33141683,-0.49725003,-0.40753489,-0.39511848,-0.46061215,-0.39980759,-0.44453202,-0.63138083,-0.78805884,-0.68900647,-0.58053141,-0.73831942,-0.89107183,-0.82895378,-0.7424016,-0.78581455,-0.76465946,-0.68456163,-0.60302838,-0.59773658,-0.52814693,-0.55363173,-0.60580039,-0.32287725,-0.3306877,-0.38006702,-0.12769723,-0.0473383,-0.050758271,0.002303665,0.086294202,0.11581709,0.077733954,0.081858933,-0.00054420001,0.0084723389,0.10104021,0.21847384,0.082800228,0.23135369,0.23935245,0.19855515,0.19577745,0.26305204,0.27790188,0.24938916,0.41720039,0.49275564,0.452383,0.55033389,0.54967944,0.50276033,0.60251789,0.76429019,0.67577287,0.69145041,0.62605015,0.59811046,0.68156975,0.68269547,0.72289935,0.61092593,0.64607929,0.66854727,0.79494252,0.72018362,0.56241411,0.6442123,0.60575399,0.70985818,0.62386941,0.57111731,0.74220251,0.93707614,1.0854563,1.1840209,1.2735861,1.4998655,1.7654541,1.922945,2.0053495,1.9071609,1.8631585,1.6190047,1.4002724,1.292709,1.1226996,0.79132765,0.47184182,0.087981119,0.12052729,-0.047136125,-0.20486472,-0.21695298,-0.26717914,-0.12590165,-0.21536882,-0.14870658,-0.19423806,-0.20800651,-0.18252993,-0.18620941,-0.16612279,-0.093617136,-0.070502015,0.076260829,0.26958391,0.70909338,0.92590775,0.87730891,0.91427499,0.74107277,0.60960314,0.57098753,0.62495667,1.0001017,0.80749208,-0.25873557,-2.289988
-0.42409095,-1.6125874,-2.6742845,-3.5534243,-4.0950931,-3.8528701,-3.2930963,-2.3619503,-1.433593,-1.3307459,-0.98483266,-0.48729432,-0.34800938,-0.35358644,-0.39931925,-0.29309072,-0.29183704,-0.30175338,-0.35067121,-0.33140507,-0.20079564,-0.27219844,-0.19039911,-0.2601931,-0.44986743,-0.35568537,-0.25637692,-0.25440991,-0.17073125,-0.20618412,-0.19879443,-0.30792808,-0.31784675,-0.30447348,-0.15643479,-0.25588728,-0.1835341,-0.15224244,-0.12590665,-0.063401308,-0.025511462,0.025179849,0.044677622,0.025324657,-0.0069712828,-0.056315506,0.025411395,0.11215966,0.11576259,0.06919123,0.13429735,0.078433111,0.087284508,0.0089538532,-0.064306963,-0.03872325,-0.040544775,-0.042162362,-0.026975085,-0.12263504,0.012815904,-0.065285111,-0.074514514,-0.079299075,0.0056977626,0.010190442,0.15504131,0.20350113,0.089299426,0.094717674,0.13420703,0.28991971,0.35463022,0.41239006,0.50441374,0.37608999,0.49187081,0.50656276,0.52191833,0.63176133,0.62193652,0.55064334,0.60430734,0.61280663,0.53156627,0.53977067,0.64641255,0.60397774,0.60443225,0.50213477,0.62535682,0.58675974,0.48449916,0.61495233,0.5822082,0.82215437,0.94523101,1.0800081,1.4565695,1.5996103,1.9575738,2.228572,2.2972377,2.2400578,2.0978172,1.872648,1.7436702,1.4263003,1.0758617,0.82252206,0.47821023,0.22406784,-0.012067105,-0.14597288,-0.19207716,-0.14882509,-0.18745708,-0.22573,-0.15774218,-0.30911796,-0.2652801,-0.13763951,-0.052491799,-0.11901104,-0.20583145,-0.12678387,-0.13285435,-0.061003782,0.10352474,0.60369576,1.247863,1.3156503,0.78749045,0.078283172,-0.96767159,-1.5036075,-1.5428955,-1.2903656,-0.44255087,-0.41104053
0.32002587,-1.0007382,-2.6516137,-4.2215662,-4.6489552,-4.0051104,-2.862834,-1.9824602,-1.746335,-1.1131842,-0.38052729,-0.32247482,-0.37832603,-0.29791349,-0.39106877,-0.37825129,-0.25183337,-0.31512522,-0.30031812,-0.34283622,-0.40568863,-0.38426533,-0.36138828,-0.45847633,-0.51488166,-0.54558505,-0.54655828,-0.58058952,-0.60971464,-0.60232724,-0.67251663,-0.75707788,-0.76368049,-0.78492044,-0.90246134,-0.85273912,-0.83639052,-0.87068474,-0.80120945,-0.71965995,-0.70886696,-0.65355429,-0.5315517,-0.39371695,-0.31758873,-0.26992178,-0.17654099,-0.11632161,-0.070594069,0.009139575,0.050631198,-0.0044488987,0.02630661,-0.0014573307,0.046938767,0.032155316,0.016185157,0.011149659,0.055633409,0.079134674,0.10866447,0.20558056,0.23025896,0.24722167,0.25999491,0.31299022,0.30399713,0.34691306,0.37567029,0.43124695,0.53905485,0.47935185,0.64168453,0.63740949,0.63990377,0.64225971,0.67066377,0.70498923,0.61027481,0.6381198,0.60396472,0.54961065,0.57152563,0.40455088,0.44926156,0.4907826,0.36619705,0.40374528,0.3462427,0.35979074,0.3684484,0.27392477,0.33667841,0.40436662,0.32573961,0.37027274,0.48992772,0.73953733,0.94062334,1.0107326,1.0217331,1.2764329,1.4676936,1.5606542,1.5511689,1.5540552,1.3382526,1.1757212,1.0231639,0.87199952,0.62258027,0.35713705,0.055333722,-0.16106849,-0.17033673,-0.1490766,-0.22870606,-0.19725613,-0.19480391,-0.20657151,-0.1927301,-0.12540717,-0.11558101,-0.09222951,-0.1802373,-0.09710252,-0.08578413,-0.15129648,0.10313758,0.56434977,1.0756328,1.1515669,1.3790961,1.7797872,1.9133953,1.4992016,1.2031106,1.4073333,1.216265,-0.49323785
0.11221916,-1.9383937,-3.4110125,-4.2565552,-4.0315842,-3.1612936,-1.9996181,-1.6354646,-1.4034104,-0.65139189,-0.24279128,-0.35443742,-0.35367731,-0.30492719,-0.384635,-0.4217178,-0.35534736,-0.34544872,-0.31904777,-0.39816224,-0.42395399,-0.42550886,-0.4898904,-0.53414556,-0.5426522,-0.57459429,-0.66411148,-0.69041125,-0.68809264,-0.84040094,-0.91612611,-0.88611045,-0.93299384,-0.93529968,-0.97661029,-1.0484684,-1.077885,-0.98958902,-0.9285663,-1.0034747,-0.85455727,-0.71564078,-0.71529529,-0.63707549,-0.4561859,-0.37324478,-0.26248686,-0.12630282,-0.13199387,-0.05946869,0.0094134968,0.0050009261,0.023568518,0.012454128,0.064145221,0.062804819,0.19780911,0.1517869,0.14410064,0.12614545,0.17148868,0.19421058,0.20026545,0.14137743,0.15694677,0.2411706,0.22677012,0.39706448,0.31959653,0.50684297,0.45551881,0.57712176,0.657666,0.62451203,0.71318661,0.66672051,0.69827637,0.72562439,0.83398352,0.67005558,0.69544017,0.66400039,0.65794283,0.60620812,0.60769791,0.51682741,0.49226806,0.45045596,0.46315852,0.55328335,0.55653237,0.51584011,0.50672135,0.48564549,0.52828098,0.66424212,0.8658378,0.94404774,1.0945576,1.2111566,1.391357,1.629663,1.8141852,1.8853823,1.8682042,1.8068767,1.5580562,1.3833732,1.1129199,0.96415293,0.66627989,0.22070853,0.024716646,-0.20689058,-0.3324159,-0.36183946,-0.28450473,-0.2926499,-0.28323958,-0.32475672,-0.31696184,-0.32671902,-0.23764949,-0.23536469,-0.30338352,-0.20518551,-0.24304639,-0.21987482,-0.040744296,0.16281224,0.84317973,0.92096124,0.66799582,0.83176882,0.89367377,0.92988111,0.8660529,1.0585941,1.6702873,1.7462047
-0.68414834,-2.4727728,-3.9321031,-5.0198421,-4.1401836,-2.8185457,-1.6822032,-1.541561,-0.82733217,-0.15357935,-0.14178068,-0.1347081,-0.18026684,-0.16088456,-0.26468152,-0.21573286,-0.15671455,-0.32667137,-0.41491707,-0.31061279,-0.38718828,-0.40105105,-0.38775252,-0.44712358,-0.49109804,-0.59704161,-0.5481174,-0.69266295,-0.76404968,-0.98935636,-0.99196534,-0.83892935,-0.93439504,-1.0362886,-1.0424863,-0.98742816,-1.0148971,-0.9372723,-0.85522581,-0.83120501,-0.75671281,-0.57651194,-0.34209437,-0.26558729,-0.24511147,-0.093674588,-0.14811834,-0.074162288,-0.066901785,-0.039118521,0.0028376045,-0.053761557,0.11469908,0.067929858,-0.012436632,0.033887704,0.070521373,0.060946297,0.0084451856,0.023987523,0.023632482,0.16791948,0.14121908,0.15420818,0.30061543,0.35729784,0.41444818,0.43985209,0.62726603,0.54003539,0.64761392,0.75207355,0.83107862,0.83464352,0.71599869,0.7016423,0.70269314,0.88425907,0.62323929,0.55434201,0.61339017,0.51477089,0.45308266,0.38489883,0.48352837,0.47148176,0.35894518,0.45736419,0.33920982,0.34434093,0.39105446,0.46373854,0.36496704,0.31521244,0.34642608,0.36544369,0.35985636,0.33942758,0.41707206,0.39945243,0.36367305,0.32802311,0.42409255,0.63828397,0.65867348,0.92764287,1.1694131,1.1022255,0.84850976,0.71652881,0.71719405,0.65810971,0.72081053,0.69262835,0.6031774,0.23855086,-0.056714781,-0.05278059,-0.031188409,-0.04883642,0.019721179,-0.039908097,-0.023320767,-0.12891422,0.02794207,-0.014671745,-0.0016759095,0.076972973,0.13966784,0.20518156,0.79234079,1.6846913,2.0533064,2.1501742,2.5520393,2.4878486,1.6033239,0.38399064,-0.0066311457,-0.13212442
-0.61920129,-1.757789,-2.5265643,-2.9871087,-3.5011831,-3.8356587,-3.6026602,-2.7604317,-1.5099644,-1.3363425,-0.99163636,-0.28459203,-0.099929952,-0.095767732,-0.065448918,-0.17322332,-0.1378698,-0.13677343,-0.061661962,-0.026382748,-0.056185278,-0.082686517,-0.051657742,-0.0027194933,-0.04210329,-0.041856292,0.015867847,-0.030019383,-0.038601679,-0.10068374,-0.026695067,0.062954868,0.0041363937,-0.11912872,-0.047547397,0.033780514,-0.036376909,-0.15471439,-0.16177932,-0.11291918,0.057083035,0.046493603,0.10694317,0.12392364,0.095377861,0.059710106,0.10834611,0.26438423,0.24173358,0.081712492,0.11712341,0.22334908,0.2038644,0.1197962,0.15048201,0.14555512,0.089453606,0.073394456,0.035912823,0.12319566,0.077132904,0.10288699,0.10945226,0.084596685,0.12866208,0.19280353,0.049036703,0.26326476,0.34867719,0.29211285,0.11309888,0.21729939,0.37142034,0.35144428,0.44594011,0.51935496,0.53330465,0.55380936,0.54526586,0.59102461,0.47476722,0.56428639,0.58361383,0.5970416,0.58525407,0.57671799,0.54099166,0.51965258,0.57510472,0.48660005,0.46602189,0.38361982,0.66321124,0.74181137,0.89487867,1.010927,1.1277736,1.3053629,1.5420761,1.7689344,2.0133818,2.0321424,1.8674684,1.8962342,1.6812182,1.3922858,1.395088,1.176388,0.75539709,0.66776262,0.3058602,-0.1507887,-0.23792068,-0.26546805,-0.29006647,-0.31358839,-0.39955784,-0.42951354,-0.35387533,-0.40833854,-0.26254344,-0.27269053,-0.35057875,-0.42053766,-0.44757081,-0.3877367,-0.3212037,-0.048882028,0.57918447,1.3694957,1.4144173,1.0359893,0.25888346,-0.83471187,-1.5171938,-2.0164606,-2.1886674,-1.5372548,-0.88472835,-1.7692644
-0.13825638,-3.0752273,-4.4693227,-4.3486107,-3.9792881,-2.9224717,-1.8483271,-1.4964046,-1.0079474,-0.269918,-0.25986291,-0.2776573,-0.25640192,-0.24072915,-0.23751784,-0.24903122,-0.18466394,-0.28501448,-0.33104831,-0.35582873,-0.33359366,-0.44827872,-0.40034852,-0.32922331,-0.48580603,-0.50135719,-0.51098586,-0.6013261,-0.55726908,-0.59733513,-0.75341238,-0.74995429,-0.77475003,-0.85328161,-0.8502367,-0.82299995,-0.74257101,-0.95050893,-0.83577919,-0.69559977,-0.72551796,-0.5963622,-0.49564965,-0.39330957,-0.32628973,-0.23524033,-0.24007975,-0.15333795,-0.11272622,-0.081185297,-0.10421008,-0.034476452,0.012235366,-0.0070725415,0.093327935,0.040729113,0.12539325,0.13513875,0.096038899,0.070657667,0.12386458,0.24002977,0.14352672,0.21922423,0.28656231,0.26150737,0.32346272,0.40608004,0.39386221,0.46631253,0.50113723,0.538143,0.6077558,0.64161616,0.64951415,0.61300304,0.53933865,0.67974418,0.59804834,0.55989866,0.51803425,0.55873557,0.43254969,0.46079835,0.56034403,0.53284154,0.41778211,0.50559174,0.38630421,0.40434476,0.46400354,0.40629175,0.50318362,0.42060706,0.4650045,0.42976993,0.49708459,0.49674232,0.57921316,0.97975077,1.2232847,1.2799901,1.3951666,1.6606457,1.927906,1.9147006,1.8015238,1.6785594,1.4401028,1.2740386,1.0704524,0.66183584,0.35339895,0.036911332,-0.14405475,-0.18150396,-0.11408348,-0.14381478,-0.085821767,-0.10483509,-0.17324009,-0.21513823,-0.13869057,-0.1382228,-0.15056318,-0.1121177,-0.10943826,-0.07452535,0.014589833,0.20798432,0.7834149,1.1792104,1.1936901,1.1859634,0.98719051,0.68892409,0.77437195,0.82393521,1.1172184,-1.640485
0.31921982,-1.274314,-2.3964388,-3.6029332,-4.203826,-3.9135511,-2.9035374,-1.7894973,-1.5692263,-1.0961661,-0.47563105,-0.53123812,-0.46257554,-0.53980261,-0.55868073,-0.53824042,-0.51843762,-0.47231405,-0.49888545,-0.46945057,-0.43507129,-0.63611588,-0.48332597,-0.51716992,-0.56347081,-0.60026461,-0.69951979,-0.67206738,-0.72938367,-0.67295202,-0.70956497,-0.82431934,-0.8518211,-0.87300797,-0.87504999,-0.96132185,-0.92708221,-0.82000774,-0.8108847,-0.72312974,-0.64923768,-0.7194207,-0.61573729,-0.47081873,-0.3903128,-0.26443416,-0.28599601,-0.1711193,-0.18740778,0.0203419,-0.011229521,-0.0083162869,-0.019442572,-0.12867361,0.0048276453,-0.01952493,-0.081139263,0.055487413,0.020253524,0.041717885,-0.024786085,0.07705223,0.050654333,0.14481927,0.21558034,0.13948004,0.20369741,0.26630821,0.32530313,0.36385835,0.48445604,0.54432366,0.59785617,0.54014009,0.48464186,0.57860252,0.60016801,0.59860353,0.57358114,0.49741483,0.51236792,0.65814639,0.52644032,0.50738468,0.55844332,0.58299274,0.44808331,0.38848628,0.49462519,0.49276355,0.43504272,0.4232881,0.44833184,0.41158453,0.45871169,0.6201574,0.79049909,0.9280437,1.174215,1.2952329,1.3644999,1.7329978,1.9907678,2.1793389,2.0092669,2.0401782,1.989643,1.6308293,1.448843,1.2336439,0.99008093,0.67541398,0.22113479,-0.10625726,-0.10795998,-0.063555038,-0.27673207,-0.16038518,-0.11711411,-0.1310479,-0.11802747,-0.065602642,-0.043439906,-0.12345612,-0.21253416,-0.073422335,-0.071887118,-0.017451453,0.29362606,0.75691584,1.5612639,1.4379579,1.1034588,0.88569854,0.42897268,0.013260846,0.047614797,0.55036011,1.1888648,0.25888403
-0.66944196,-2.1671337,-2.8584173,-3.9482904,-4.3337515,-3.5950636,-2.2132544,-1.4905713,-1.2999872,-0.59454127,-0.16810221,-0.3364142,-0.29478666,-0.098883842,-0.19326423,-0.16316065,-0.15328249,-0.20194867,-0.15529858,-0.18456319,-0.26967697,-0.275065,-0.28730386,-0.35643533,-0.34156643,-0.20514915,-0.20551138,-0.24641704,-0.24810181,-0.30334521,-0.32143682,-0.31369815,-0.23613956,-0.22954326,-0.30570457,-0.37751147,-0.24597116,-0.22330542,-0.19584699,-0.25644118,-0.20827608,-0.23423688,-0.126364,-0.16880187,-0.17937607,-0.15823821,-0.11939591,0.052679282,0.018828093,0.034596156,-0.011001665,0.059456227,0.070695686,0.072933117,0.054990363,0.06558536,0.1093786,0.11258932,0.21026554,0.230341,0.32562962,0.18411859,0.13033013,0.18727294,0.28822812,0.25742354,0.31981991,0.22522195,0.37707564,0.33150096,0.36860163,0.55604536,0.61060384,0.56384848,0.5934418,0.7144674,0.71577497,0.73584344,0.8073827,0.73820703,0.72412684,0.76042718,0.79194111,0.75189473,0.6945064,0.61070756,0.56796416,0.45809105,0.55297929,0.46122383,0.44193387,0.51849216,0.47546689,0.46110984,0.47773733,0.48728798,0.55533192,0.87426112,1.0020865,1.0311432,1.4118709,1.6761681,1.9538896,2.1576579,2.1522167,2.0210935,1.8439453,1.7266761,1.4944195,1.2099865,0.83887221,0.50307901,0.033245561,-0.2132113,-0.43261293,-0.38525127,-0.37215372,-0.37585315,-0.3494901,-0.36615348,-0.34089015,-0.31493125,-0.26332834,-0.32785538,-0.26164306,-0.24824282,-0.28915822,-0.29096234,-0.15478059,0.26304699,1.1643856,1.5093858,0.8208806,-0.068179831,-1.1529094,-1.9336537,-2.0227493,-1.7769338,-0.78629736,-1.1054492
-1.065328,-4.2105243,-4.8425042,-4.4767229,-3.4074675,-2.2215832,-1.5398122,-1.3776561,-0.46429676,-0.17982244,-0.32593801,-0.25275966,-0.27064845,-0.23368675,-0.19555595,-0.26158798,-0.24623456,-0.33562654,-0.32546354,-0.24518214,-0.39525914,-0.31543946,-0.34765335,-0.44706275,-0.43148755,-0.42041889,-0.48668129,-0.56082727,-0.59975269,-0.60818523,-0.61515331,-0.6671479,-0.7087513,-0.78081567,-0.79125094,-0.79130535,-0.76152429,-0.78146023,-0.76643344,-0.76296881,-0.63605451,-0.55640473,-0.45629485,-0.36098595,-0.2576177,-0.16249334,-0.06184623,-0.029759492,0.079339693,0.038924999,0.042152373,0.16710821,0.22603009,0.10795918,0.16138744,0.19136837,0.24037653,0.25605439,0.20625671,0.23769992,0.34336037,0.34541433,0.41703021,0.44087902,0.28127216,0.34270628,0.4051572,0.51270348,0.50815723,0.52661728,0.55037743,0.62994912,0.59084828,0.63113405,0.67218106,0.58661716,0.69775735,0.65836797,0.58409813,0.63281232,0.63654245,0.64270187,0.51117737,0.53633487,0.48586967,0.52646473,0.44976378,0.37472522,0.34739229,0.46773106,0.50819844,0.35849022,0.41465821,0.26967353,0.26836015,0.41152917,0.43790879,0.55424638,0.81013414,0.94566233,1.0477758,1.2747017,1.4535819,1.7033469,1.7722275,1.8609212,1.7317589,1.6667246,1.4988358,1.2168524,1.0451532,0.68668951,0.21716496,-0.058878972,-0.17661967,-0.2417547,-0.26786375,-0.27082395,-0.34947881,-0.34425694,-0.23069931,-0.2692982,-0.23777265,-0.22896595,-0.27638892,-0.27929849,-0.2450037,-0.15251675,-0.12309417,0.0834023,0.80968872,1.4722542,1.4215702,1.1509384,1.0347136,0.34463912,-0.23176554,-0.69462845,0.14459469,-0.18865309
-2.1176672,-3.4966875,-4.0408873,-4.1594151,-3.6277236,-3.0953999,-1.8922841,-1.1730436,-0.95393211,-0.47841109,-0.20907197,-0.15288561,-0.19869704,-0.1709797,-0.16098036,-0.14203901,-0.091607373,-0.03791853,-0.1123106,-0.034204465,-0.08220886,-0.13390374,-0.052238087,-0.16445241,-0.11812863,-0.092283342,-0.076978697,-0.059905307,-0.092521464,-0.25270308,-0.13914388,-0.11384732,-0.1193403,-0.12174108,-0.14613077,-0.081324292,-0.048211474,-0.090324697,-0.0070329517,-0.016932105,0.054821157,0.13446469,0.17610765,0.19681906,0.21291541,0.23343539,0.28469239,0.27774597,0.15652294,0.18221365,0.099674757,0.12973544,0.03417873,0.14644692,0.066764362,0.050159867,0.050154354,-0.10291782,-0.02238985,-0.028547747,0.010871252,-0.0045454462,0.04842475,0.080175267,0.11920549,0.14235227,0.1485979,0.088342483,0.11776541,0.18412478,0.26231433,0.37691534,0.26241027,0.42422958,0.41491578,0.56929595,0.57814626,0.57088987,0.48595157,0.45233937,0.53809479,0.54521445,0.53200369,0.49263997,0.39396206,0.36740949,0.46151837,0.41599832,0.45766294,0.42684649,0.27023299,0.56925181,0.49220631,0.55889515,0.7078823,0.92828053,1.2715852,1.329156,1.4633185,1.6814468,1.9829186,2.0792998,1.9238196,1.9485336,1.8431137,1.5872581,1.4004203,1.1407546,0.83231865,0.6701766,0.36756118,0.018286706,-0.18434775,-0.27254292,-0.28401408,-0.28133653,-0.29274424,-0.32499961,-0.27095807,-0.21360028,-0.27311583,-0.31813741,-0.29144786,-0.18813266,-0.19280445,-0.13810391,-0.21586069,0.0033156424,0.37546188,0.96389743,1.308846,0.86507745,0.29020504,-0.88351437,-1.5283207,-1.8691149,-1.6499744,-1.0490245,-0.58343555,-1.5095614
-1.1243426,-2.6527832,-3.4339137,-4.4762592,-4.1217309,-3.1173037,-1.9160607,-1.5581541,-1.3840447,-0.75687234,-0.38878532,-0.42159647,-0.45878842,-0.42620432,-0.34868155,-0.44238176,-0.40095573,-0.42171498,-0.40408112,-0.4424696,-0.43641085,-0.43315657,-0.40555784,-0.43943683,-0.44044346,-0.51427965,-0.50394328,-0.52571925,-0.46147008,-0.52939221,-0.55687508,-0.6348669,-0.6499211,-0.64999045,-0.62481705,-0.63977586,-0.72293501,-0.58466637,-0.59556292,-0.47949721,-0.53555309,-0.3661544,-0.32958634,-0.26931226,-0.14239708,-0.028768515,-0.063876416,-0.0033212478,0.029870785,-0.056820298,-0.042334366,-0.042254955,0.068196499,0.06880028,0.11155896,0.12646459,0.11287149,0.087370491,-0.0048746024,0.029824784,0.054398148,0.11877,0.17449708,0.21671475,0.24081567,0.24550694,0.2433508,0.32794843,0.35701527,0.44174834,0.56389527,0.52214948,0.5018205,0.61192997,0.64732675,0.61203004,0.65613027,0.65677351,0.64206764,0.65281272,0.76101329,0.69243767,0.56086578,0.65517706,0.56997005,0.60533614,0.52149925,0.61569997,0.57183776,0.59863559,0.41857737,0.43245864,0.5015907,0.60092805,0.67753988,0.8774466,0.95866177,1.1636482,1.343427,1.6162619,1.801478,2.0386235,2.1851171,2.0488739,2.0216755,1.7691857,1.6678571,1.4033376,1.1216275,0.98229208,0.60270783,0.18084417,-0.083635912,-0.088373828,-0.1871234,-0.18296011,-0.25511888,-0.21496024,-0.27801388,-0.35546402,-0.22594066,-0.20335301,-0.16230995,-0.17510882,-0.14885894,-0.16082433,-0.17568617,-0.017247471,0.31529124,1.0011887,1.3382883,1.0643101,0.58671408,0.096852171,-0.32264344,-0.66702242,-0.46751678,0.24143818,0.44607401,-0.99619075
-1.2659888,-3.1944319,-3.7907406,-4.1667143,-4.2591772,-3.5273034,-2.335555,-1.5477917,-1.3383864,-1.0436582,-0.31186388,-0.17955443,-0.072526079,-0.0077322544,-0.08806308,-0.19964893,-0.24856976,-0.17128006,-0.1874691,-0.16221575,-0.13998568,-0.095579895,-0.19455405,-0.15099365,0.022490136,-0.16751265,-0.20993712,-0.2541963,-0.24194969,-0.1542389,-0.14547608,-0.13403635,-0.23117273,-0.30301809,-0.26841671,-0.25739483,-0.17309814,-0.17058107,-0.10354784,-0.11578095,-0.058329056,0.010230265,0.12165812,0.15649668,0.009495366,-0.016527177,0.071487407,0.21016603,0.23196508,0.20796377,0.23636157,0.16547665,0.21410173,0.19245107,0.33875944,0.3140657,0.11264112,0.064351738,0.17433749,0.10944238,0.083116457,0.15105354,0.14462499,0.24561073,0.13326097,0.16846343,0.19984828,0.12272509,0.27915134,0.21848823,0.13509292,0.32977315,0.3049532,0.29289602,0.33815456,0.40090351,0.50293306,0.4518954,0.41401713,0.37759922,0.4604744,0.57594153,0.53954428,0.45782923,0.42669885,0.43215323,0.46288495,0.36863171,0.501164,0.40541169,0.43241488,0.35675859,0.33654308,0.41933012,0.66262488,0.80872151,0.9113393,1.1903722,1.2453991,1.4945768,1.8386596,2.0807211,2.144313,2.1023219,1.8619419,1.7944159,1.6898672,1.2066037,0.89087655,0.54092819,0.14320382,-0.076281683,-0.23003351,-0.34816226,-0.40572342,-0.34370011,-0.29309362,-0.27359372,-0.23613006,-0.22299166,-0.29826953,-0.34790561,-0.20188951,-0.07107685,-0.15649348,-0.035158996,-0.097891617,-0.13315312,0.22419991,0.8727893,1.4806026,1.1976108,0.58040016,-0.17248818,-0.77144402,-1.1314639,-1.1112546,-0.87650246,-0.41099736,-1.4660762
-0.70456166,-2.4708303,-3.14706,-4.1539663,-4.2880728,-3.4992902,-2.2414438,-1.4713514,-1.1594744,-0.81960112,-0.34840052,-0.19813484,-0.1924801,-0.19174943,-0.10522362,-0.15447445,-0.25149932,-0.22316324,-0.13071304,-0.23888214,-0.22320609,-0.25136548,-0.37064738,-0.12856623,-0.17820296,-0.26566939,-0.20904323,-0.23969253,-0.34943493,-0.33469863,-0.35017465,-0.37845355,-0.25905127,-0.25329104,-0.3480039,-0.33579015,-0.25014351,-0.35319332,-0.26934529,-0.22319908,-0.21361689,-0.048528628,-0.0080329833,-0.043719797,0.052783195,0.11332639,0.14229029,0.10498373,0.12148742,0.13283003,0.18958051,0.22586219,0.19602799,0.15100338,0.17064738,0.18047699,0.11259854,0.077678999,0.10680441,0.094903992,0.22001728,0.14901005,0.17591228,0.24941543,0.19298307,0.23033738,0.21365219,0.23986591,0.34567,0.46420712,0.43940996,0.41108625,0.48687314,0.58099112,0.55674676,0.64948464,0.50486826,0.45643929,0.46697836,0.54758057,0.59099458,0.53717528,0.53915003,0.5908294,0.5526684,0.500526,0.39250384,0.34044888,0.46625494,0.40475713,0.40307276,0.26297232,0.31025895,0.3927778,0.37058793,0.49805384,0.52607379,0.8568172,1.0990702,1.2283011,1.4456742,1.6629327,1.9310484,2.1194346,1.9905813,1.904066,1.8647166,1.6520193,1.3491636,1.0757615,0.77492566,0.52675429,0.14633276,-0.19250563,-0.41517064,-0.3979164,-0.48969677,-0.43822292,-0.40644366,-0.4592649,-0.45438497,-0.52460964,-0.43388404,-0.4459747,-0.55124432,-0.47058033,-0.31244156,-0.39986333,-0.27106601,0.19461211,1.141229,1.7678883,1.611472,1.233302,0.28061332,-0.70964963,-1.7064186,-2.0191718,-1.239421,-1.0772619
-0.55943892,-3.5060312,-4.1775366,-4.3487131,-4.09492,-2.8870917,-1.8188304,-1.5773837,-1.005605,-0.28164832,-0.34128652,-0.28380582,-0.28612901,-0.32963646,-0.25268456,-0.27368323,-0.31474085,-0.2105014,-0.29485122,-0.2906123,-0.26460952,-0.23725446,-0.31081698,-0.30260516,-0.34083349,-0.41188823,-0.45598462,-0.51845777,-0.406089,-0.52353911,-0.56264933,-0.56397164,-0.57078717,-0.62333453,-0.67462598,-0.62438143,-0.65101907,-0.72856289,-0.61524855,-0.51769226,-0.57718217,-0.45026586,-0.38077209,-0.28320048,-0.32951547,-0.18342648,-0.12313361,-0.14063443,-0.1399179,-0.11418804,-0.081235925,-0.086522931,-0.023194517,-0.029057264,0.040691558,0.07159567,-0.033593215,0.062171605,0.049045993,0.15823536,0.16724709,0.25078182,0.24608672,0.19855423,0.28684058,0.23937645,0.29990379,0.35273079,0.40875299,0.49225391,0.47057504,0.5603641,0.51388167,0.58845128,0.56473627,0.63965132,0.50145181,0.50929404,0.49577475,0.48637414,0.41521139,0.5011513,0.50033365,0.38642887,0.39171447,0.41386753,0.34628887,0.38276973,0.41221542,0.28903139,0.36099425,0.34906501,0.26432823,0.33018266,0.24884223,0.26134436,0.32603287,0.41672423,0.55427394,0.98739548,1.2257277,1.3110371,1.3917138,1.6911921,1.9383139,1.8079511,1.9000794,1.7060125,1.4803955,1.315426,1.048388,0.74539205,0.28664891,0.059598808,-0.051713424,-0.069154855,-0.2123677,-0.25807985,-0.26818463,-0.18970587,-0.23876121,-0.15318422,-0.12436907,-0.26172396,-0.150729,-0.20274554,-0.11902989,-0.18037252,-0.066918725,0.29793821,1.029059,1.6553916,1.6652675,1.7735963,1.4522687,0.58951965,0.034004472,0.07601885,0.86766372,-1.5792616
-0.072641534,-2.9070837,-3.8714444,-4.0187545,-3.8230065,-2.9866199,-1.9976589,-1.7847577,-1.2736415,-0.64015161,-0.49245156,-0.52340221,-0.51182131,-0.43352985,-0.49013078,-0.56816027,-0.50508132,-0.49344611,-0.50273894,-0.51920115,-0.55109899,-0.52471698,-0.59855891,-0.59894079,-0.65456753,-0.65126365,-0.66075327,-0.76158947,-0.73453559,-0.75756353,-0.75527339,-0.82258843,-0.82483164,-0.78464441,-0.7784228,-0.90951711,-0.80770655,-0.79944755,-0.67818887,-0.66116777,-0.66485646,-0.50331709,-0.48106475,-0.38643126,-0.32623505,-0.254704,-0.24729724,-0.14760989,-0.12075641,-0.067648155,-0.038715521,-0.10244515,-0.055897655,-0.027044881,0.045491375,0.055972853,0.16580722,0.22062816,0.18264567,0.13133327,0.21726804,0.18952343,0.25039219,0.28396204,0.31390835,0.28817251,0.34942961,0.41216032,0.523722,0.45944465,0.5074363,0.49866869,0.49039928,0.52399278,0.52218606,0.55996363,0.6016456,0.51044142,0.50243965,0.51354001,0.47870066,0.40816788,0.41254699,0.44241014,0.36630164,0.48488376,0.47512817,0.42231941,0.37018892,0.42696746,0.38082995,0.37995768,0.32277295,0.40091905,0.39706752,0.34640613,0.39600835,0.40811665,0.56984851,0.77818442,1.0183945,1.221723,1.3571686,1.5002617,1.8090921,1.9296281,1.8713749,1.7950052,1.6827335,1.5020589,1.2717601,0.96074329,0.55890711,0.20192208,-0.00060537164,0.060431953,0.063489091,0.013477744,0.0096397614,-0.0020770907,0.050568446,0.036013619,0.088799662,0.056646557,0.085932213,0.077419718,0.10835105,0.18818649,0.24278739,0.55631052,1.2072986,1.700198,1.5612361,1.5261305,1.1667337,0.51577095,0.31493989,0.72944001,0.93748192,-1.8085514
-0.29029785,-3.1126059,-4.3840683,-4.5026475,-4.2222112,-3.7695423,-2.2667483,-1.3392874,-1.1157411,-0.46178109,-0.10770119,-0.045300764,-0.20845546,-0.12567885,-0.13586687,-0.18423331,-0.1069514,-0.19699691,-0.15083041,-0.1747078,-0.23063016,-0.13125176,-0.2348386,-0.23796674,-0.21187477,-0.33065534,-0.30170733,-0.35576067,-0.31958292,-0.43101332,-0.46082409,-0.48929554,-0.57079241,-0.62941943,-0.68578324,-0.6254233,-0.60106578,-0.60874814,-0.5809516,-0.5140983,-0.48261305,-0.37538383,-0.30228001,-0.22802831,-0.1829033,-0.014806344,0.030308562,-0.039106931,0.087571682,0.13096393,0.14240651,0.16481234,0.12300523,0.17935593,0.099492375,0.21514316,0.088890139,0.25941919,0.28876798,0.21728189,0.30110057,0.1847687,0.14172201,0.18306283,0.25925723,0.26421925,0.31755154,0.47334678,0.37363639,0.5182236,0.48950636,0.46579684,0.57341823,0.49622674,0.47653423,0.51327072,0.62483958,0.61649774,0.59700523,0.55527162,0.45499153,0.36999665,0.45735911,0.43119987,0.35723335,0.3085999,0.44801676,0.30872449,0.39040821,0.34285903,0.27061614,0.34492764,0.21496838,0.28415339,0.43895741,0.51586252,0.76461894,0.92592681,1.0549142,1.3268627,1.4157711,1.6276141,1.9041057,1.8366413,1.8850063,1.6370498,1.4062898,1.2032619,0.97294547,0.74205784,0.36523111,0.013621284,-0.34017543,-0.3744171,-0.38337246,-0.42257353,-0.37597145,-0.42887075,-0.43177626,-0.4039822,-0.36679511,-0.30336249,-0.41451381,-0.32052235,-0.32702276,-0.37643512,-0.30740813,-0.2371684,-0.028314838,0.37162876,0.84475616,0.74741127,0.888328,1.0329395,0.98296872,0.92500122,0.75807031,0.75357006,1.0626647,-0.91966503
-0.18649962,-2.6824878,-4.0168823,-4.2181222,-3.8416655,-2.9940593,-1.9739404,-1.6397073,-1.2912067,-0.56676936,-0.32797059,-0.35881305,-0.36747683,-0.26171947,-0.43112527,-0.44179395,-0.3533499,-0.37600121,-0.36462327,-0.38663497,-0.41732614,-0.46416289,-0.46274808,-0.54337028,-0.54589006,-0.54595426,-0.59512355,-0.69263085,-0.6992367,-0.71662131,-0.6611285,-0.76789989,-0.81352439,-0.8734148,-0.9560522,-0.87202803,-0.87619337,-0.81070489,-0.79011728,-0.71594341,-0.59079026,-0.53481418,-0.4767132,-0.37184064,-0.24637294,-0.13094889,-0.12053496,0.014479258,0.011071589,0.0022752286,0.11652929,0.084693509,0.1283251,0.1601575,0.10118565,0.14420806,0.13636224,0.16388596,0.20674542,0.29980544,0.30896572,0.30677655,0.34639645,0.31397849,0.3859669,0.5131817,0.45898087,0.56655463,0.58107131,0.58295677,0.69183783,0.67918912,0.67279958,0.67036759,0.6827621,0.64401916,0.60561895,0.70029255,0.64454818,0.51677329,0.59514554,0.68509769,0.5734656,0.52972662,0.52142569,0.53106979,0.38848935,0.48497031,0.38670994,0.37442045,0.43744564,0.34410178,0.37218879,0.3764674,0.31480166,0.3627134,0.59456603,0.75787651,0.91904515,1.1127328,1.278646,1.3747004,1.7065354,1.8956841,1.8727833,1.7721659,1.6967053,1.3856256,1.2328678,0.9505372,0.57927666,0.2959571,-0.20178549,-0.30348223,-0.38762337,-0.36700021,-0.37480505,-0.47913017,-0.38322503,-0.39308814,-0.46479868,-0.41347572,-0.40945921,-0.46814299,-0.41410923,-0.37715362,-0.33561887,-0.36524952,-0.13930581,0.1456822,0.80874553,0.78128882,0.72518731,1.0682644,1.1297018,0.940981,1.0080436,1.5642571,2.1514756,0.18005396
-0.17629228,-2.6376868,-3.8094612,-4.4892722,-4.3510365,-3.4385833,-1.9842913,-1.56912,-1.2175779,-0.23303288,-0.0016629289,-0.011947333,-0.10861362,-0.129088,-0.2152337,-0.22675743,-0.28980982,-0.36600565,-0.31412766,-0.37606389,-0.33160639,-0.35926184,-0.30137576,-0.37789234,-0.2969024,-0.36815565,-0.65727292,-0.59368595,-0.66613318,-0.58707245,-0.75209721,-0.81148339,-0.92179737,-0.8962161,-0.96873034,-1.0754937,-1.0397313,-1.083535,-0.98424237,-0.98595146,-1.0772271,-1.0142102,-0.84756863,-0.79446615,-0.54185018,-0.40525387,-0.39074173,-0.25662073,-0.19555252,-0.0254067,-0.048580392,-0.035968129,0.070576222,0.021770989,0.058129229,0.14022415,0.17026994,0.19308858,0.14972537,0.074077668,0.12565608,0.18072198,0.18843879,0.22404186,0.19734714,0.40773173,0.53409284,0.42485094,0.3987339,0.51045706,0.63856952,0.67195929,0.61198496,0.59115478,0.68830014,0.75609733,0.68724018,0.70323101,0.5743071,0.6334764,0.64040066,0.69550419,0.64181185,0.58710049,0.62897398,0.56947037,0.47499857,0.44430065,0.50195609,0.39924095,0.39117245,0.48924668,0.36902221,0.3976492,0.48342037,0.37993321,0.38020261,0.29141067,0.36483021,0.50943756,0.44803276,0.44655757,0.59167179,0.46884469,0.6082729,1.0030068,1.3795098,1.4287025,1.3133986,1.1553757,0.95893456,0.88338854,0.80703496,0.89635807,0.73655564,0.40891305,0.038974345,-0.10983542,-0.041087023,-0.023424436,-0.019581561,-0.031630907,0.024319531,-0.030129317,-0.053993392,0.072878338,0.073845613,0.0075455187,0.060580873,0.24624295,1.1466779,2.1887946,2.0979761,1.6116691,1.6400909,1.299834,0.7830095,0.055979071,0.20004621,0.59806921
-0.77146279,-2.2668842,-3.0963683,-3.9978241,-4.1471659,-3.775129,-3.0049048,-1.9609633,-1.4729544,-1.3455369,-0.88150774,-0.38703572,-0.37115026,-0.49768499,-0.36684112,-0.46005885,-0.37862459,-0.40230948,-0.43684156,-0.47290404,-0.26501392,-0.31670804,-0.31206735,-0.26977961,-0.39904476,-0.35380725,-0.22140092,-0.25230936,-0.2818231,-0.38730264,-0.31163668,-0.18863674,-0.31951346,-0.30324337,-0.22306889,-0.27538642,-0.27554155,-0.25432731,-0.14650139,-0.19873516,-0.18361855,-0.13206119,0.064934472,0.095083745,0.051056665,-0.019173068,-0.013921119,0.20906564,0.20273604,0.15672588,0.1477654,0.10113067,0.19527835,0.24186033,0.15515573,0.16209849,0.19080501,0.22924871,0.2423418,0.18819844,0.24127557,0.12403411,0.091576439,0.24908729,0.21121241,0.18012774,0.2311005,0.34802718,0.27708291,0.46188807,0.48435299,0.36356815,0.52438574,0.57693099,0.64118019,0.61513869,0.63405615,0.65963234,0.64796256,0.66588289,0.58812094,0.51343027,0.55914807,0.50247913,0.40560202,0.48159701,0.53989543,0.52826117,0.49053519,0.40918654,0.35895555,0.3361495,0.51893853,0.72477618,0.77723837,1.039399,1.1977783,1.3248846,1.5173749,1.7941439,2.0062092,2.2142649,2.0589386,1.8952577,1.6756548,1.504059,1.3943658,1.0746708,0.76584659,0.600811,-0.042114071,-0.11289814,-0.19301169,-0.38854543,-0.21387508,-0.25050793,-0.33375216,-0.23619687,-0.16681058,-0.35902258,-0.29922286,-0.33832535,-0.31423983,-0.29551643,-0.14870861,-0.056920332,-0.15961596,0.040056153,0.50563404,1.1593356,1.2716243,1.0233618,0.48035089,-0.21455424,-0.6624779,-0.8059748,-0.57446148,-0.15944024,-0.55010738,-1.8652503
-1.3630247,-3.8543382,-4.0732536,-4.2027299,-3.8304157,-3.2199833,-1.7530588,-1.1139077,-0.91374895,-0.2393704,-0.12567081,-0.10053411,-0.085392199,-0.14161214,-0.13344414,-0.089115721,-0.047415016,-0.1617913,-0.17274147,-0.16223465,-0.27502229,-0.24684875,-0.2028964,-0.27920409,-0.20604821,-0.27911503,-0.48648313,-0.33585101,-0.4480836,-0.3768003,-0.39373287,-0.48647165,-0.59673148,-0.42955834,-0.51589298,-0.53816842,-0.45652929,-0.52977341,-0.57587399,-0.49501883,-0.53505592,-0.41277233,-0.33273848,-0.2789058,-0.22023646,-0.14738026,-0.11349162,-0.092299816,0.010394312,-0.011884408,-0.015245347,-0.015417596,0.10857351,0.095715049,-0.019121082,0.066108189,0.1431892,0.070724811,0.058399694,0.081812168,0.012041428,0.08861716,0.029645404,0.12026083,0.22212749,0.098075464,0.16749609,0.29125619,0.29526366,0.27146753,0.36668156,0.39472806,0.4279047,0.39691389,0.44951976,0.5059556,0.46685305,0.44083504,0.45320175,0.45494269,0.38995942,0.3975734,0.39678333,0.3550658,0.36450349,0.3551999,0.34147125,0.2426121,0.2958794,0.32226186,0.30782956,0.31080152,0.25544912,0.31514499,0.52747711,0.69840751,0.79551948,0.96649039,1.2394185,1.3284061,1.4792864,1.7738571,2.0167672,1.8841489,1.801276,1.6069844,1.4998635,1.2624637,0.97603384,0.75844098,0.32081743,-0.050154974,-0.19747421,-0.22151997,-0.21445426,-0.31407863,-0.20164512,-0.21922203,-0.17109099,-0.24643954,-0.14778777,-0.16534758,-0.10141481,-0.14985556,-0.12387859,-0.10498289,-0.11474424,0.063822546,0.32819555,0.70981545,0.85984293,1.1922567,1.3447722,1.1292752,1.141843,0.75023259,1.056339,1.1917894,-0.12469268,-2.9418626
0.47632186,-1.8492696,-3.4485417,-4.3789226,-4.2342903,-3.0045186,-1.9589526,-1.8430086,-0.97542914,-0.33231269,-0.33701553,-0.4153644,-0.32938524,-0.35239021,-0.44309122,-0.42127774,-0.44783009,-0.36770202,-0.49667942,-0.50609875,-0.55604815,-0.5315597,-0.58810972,-0.68991833,-0.66930793,-0.76994118,-0.74203728,-0.79254632,-0.9028826,-1.0394964,-1.032926,-1.0429455,-1.1822871,-1.1393105,-1.1940093,-1.1933765,-1.1215235,-1.1209663,-1.1740609,-0.95885241,-0.87988642,-0.81177494,-0.68886658,-0.56073578,-0.47078123,-0.38531968,-0.36245535,-0.20966585,-0.16982241,-0.19838563,-0.11196806,-0.20372643,-0.13353142,-0.1761494,-0.18187941,-0.025543636,-0.1540752,-0.14396223,-0.076152022,-0.030256391,-0.10220246,-0.06560821,0.13992037,0.22511457,0.28225334,0.20490874,0.29475582,0.44062193,0.43594029,0.67500199,0.66568603,0.67560519,0.61822679,0.60317069,0.60344428,0.67153926,0.69436893,0.54920886,0.70074503,0.59515688,0.55794227,0.62310531,0.4582539,0.52839314,0.52697759,0.46695699,0.51312091,0.4883807,0.47168035,0.44449114,0.40436518,0.47803568,0.46311806,0.45935237,0.4790626,0.39867509,0.46893992,0.44114278,0.48381564,0.54225021,0.56042285,0.54580239,0.54990404,0.72969523,0.69254717,0.81779902,1.342871,1.6890872,1.6165422,1.5506295,1.2907496,1.1734378,1.02975,1.1925001,0.9828861,0.69749729,0.23562837,0.16716491,0.084728789,0.10391148,0.22212073,0.22058824,0.26544562,0.15802076,0.14222275,0.31833919,0.23556805,0.23948497,0.27178506,0.30994022,0.94699894,1.8167705,1.811143,1.4675089,1.1140841,0.74064833,0.73519927,0.76717935,1.6924395,0.94784155
-0.49922086,-2.0633294,-3.6444001,-4.1161274,-4.0925647,-3.2622905,-2.3210968,-1.6849167,-1.363844,-0.98713894,-0.2855566,-0.11136924,-0.2710832,-0.19462356,-0.17950188,-0.14320307,-0.267619,-0.13165588,-0.082588067,-0.20889944,-0.16164118,-0.16611086,-0.23354525,-0.26989887,-0.22455607,-0.28575397,-0.35378151,-0.31971276,-0.2836908,-0.36522948,-0.39835885,-0.39623312,-0.44057172,-0.51769154,-0.47626544,-0.54533793,-0.63340501,-0.58178323,-0.60790644,-0.50358897,-0.55842371,-0.60752902,-0.50625028,-0.52351818,-0.40378703,-0.3330552,-0.23181569,-0.21691563,-0.20197152,-0.15918957,-0.087601496,0.0026842703,-0.03621949,-0.012002951,0.059642775,0.040602141,0.10133222,0.089171876,0.2180617,0.21262819,0.2332996,0.19845206,0.31945651,0.39288246,0.3500509,0.3748157,0.41978022,0.4822196,0.63665767,0.62021167,0.72911376,0.75215443,0.88720049,0.76262427,0.92851456,1.0136181,0.88706099,0.99850214,0.89190204,0.88312562,0.92664079,0.91345828,0.86771493,0.7819759,0.74401034,0.80601013,0.70271565,0.66831523,0.58167721,0.68366003,0.64337227,0.49972708,0.49325481,0.55265362,0.63013422,0.81676712,0.84352847,1.0075171,1.084942,1.2981933,1.6326547,1.7916726,2.0919149,1.9648748,2.0038341,1.7525778,1.4973843,1.320084,1.0267724,0.62156834,0.26429069,-0.14837675,-0.33459782,-0.37110474,-0.4609768,-0.60280785,-0.60612524,-0.55694802,-0.58931626,-0.5675648,-0.59671249,-0.60909843,-0.67718043,-0.66549891,-0.71192247,-0.64079628,-0.7066759,-0.59480887,-0.41919874,0.0076720431,0.30884674,0.44432845,0.64720668,0.64277641,0.34817152,0.2136457,0.11040742,0.81624944,0.61146222,-1.7363468
-0.71589492,-3.1347706,-4.3831646,-4.5248169,-3.9083919,-2.9792753,-1.7039718,-1.4401351,-1.0498296,-0.25344895,-0.23448875,-0.30252483,-0.34788367,-0.24990491,-0.33909555,-0.27202933,-0.32622618,-0.25518845,-0.25803966,-0.2131642,-0.20759316,-0.20398,-0.30074634,-0.38346373,-0.34093758,-0.4289631,-0.39020925,-0.3928401,-0.45186546,-0.44541517,-0.58243656,-0.62210682,-0.60769954,-0.660244,-0.70761467,-0.7185245,-0.67899539,-0.64307988,-0.62414198,-0.53917544,-0.56509337,-0.3966809,-0.35402317,-0.31554772,-0.24965495,-0.15135321,-0.12491552,-0.050684299,0.041090342,0.051423334,0.044802089,0.0091630922,0.0019603027,0.089316481,0.10647241,-0.012977159,0.07779678,0.039405179,0.0090646503,0.05898366,0.19168457,0.14423706,0.14619255,0.13778642,0.28764716,0.29544781,0.29265958,0.39789479,0.30859921,0.44587625,0.46758558,0.48019563,0.53546196,0.58751649,0.54832305,0.5325603,0.55554873,0.55887001,0.52057101,0.60976124,0.52658057,0.5476639,0.53941495,0.39798922,0.44298049,0.47421995,0.40748378,0.39275229,0.29956824,0.35186839,0.32962477,0.36959981,0.35068842,0.40979601,0.61806793,0.71962357,0.77682645,1.1493565,1.1806907,1.4119593,1.7413662,1.9929401,1.9861242,1.9164797,1.9504668,1.7644125,1.4771518,1.1799003,0.90983876,0.66821329,0.25645996,-0.19629962,-0.3189195,-0.41873761,-0.34506245,-0.40656722,-0.45943041,-0.35901359,-0.4734852,-0.4120753,-0.41053437,-0.44066235,-0.43183351,-0.49831598,-0.35014133,-0.35046761,-0.40895026,-0.32866876,0.059688743,0.66318998,1.1436657,1.0176532,1.0008973,1.1438961,1.0421927,0.67618586,0.53016703,0.99972802,1.4407299,-0.17962794
-1.5839675,-2.6738669,-2.9482802,-3.6626253,-3.8565073,-3.4691079,-2.8667945,-1.9024371,-1.2181255,-1.0409242,-0.60147833,-0.33919835,-0.3404077,-0.26769731,-0.19560399,-0.21835316,-0.12574466,-0.21671346,-0.21306943,-0.20268844,-0.21470211,-0.18430579,-0.20954112,-0.19509749,-0.17670498,-0.25513542,-0.33346814,-0.30893045,-0.17545815,-0.084347287,-0.14470826,-0.29811513,-0.35026466,-0.32213318,-0.16528651,-0.16529043,-0.17453076,-0.17824067,-0.25558154,-0.048900235,0.0094208825,-0.23903601,-0.13871985,-0.055150907,-0.015426035,0.065549498,0.15203466,-0.053558106,0.060182193,0.19692706,0.16659061,0.21494339,0.28405514,0.18772145,0.028003182,0.065081539,0.16363256,0.20011441,0.061160745,0.027328905,0.11312375,0.16889185,0.13691193,0.15302113,0.20175779,0.12149571,0.11947298,0.1952452,0.20395642,0.16391283,0.24534771,0.31460231,0.2182632,0.23914636,0.21225678,0.36203069,0.5031241,0.42289471,0.29319369,0.36162134,0.36602092,0.45430653,0.5887358,0.55070117,0.48691,0.59447858,0.62970147,0.50312487,0.53698023,0.61007111,0.75717538,0.76483124,0.95658575,1.1537658,1.3514033,1.4596017,1.8521499,2.0532568,2.0737204,2.0497693,2.0891264,1.9425251,1.7009466,1.6173879,1.3572346,1.0613759,0.78724481,0.51305135,0.17061905,-0.0023484327,-0.088800979,-0.067242065,-0.053490474,0.0087259841,0.021779075,-0.053577878,-0.21120841,-0.15832664,-0.071298628,-0.016375435,-0.089503188,-0.02561722,0.019915705,0.015472536,0.050934163,0.038082387,0.36430609,0.96370289,1.3463869,1.3555723,0.95834022,0.20358156,-0.69460825,-1.2450096,-1.4165184,-1.3713978,-0.92170479,-0.77566972,-1.052087,-2.0116092
-0.88750742,-2.8498643,-4.0101897,-4.4802127,-3.9988204,-2.9861807,-1.7819305,-1.5224085,-0.94615557,-0.25879851,-0.16185861,-0.20074014,-0.24005594,-0.25273784,-0.19803911,-0.31391529,-0.27569446,-0.24538511,-0.27564092,-0.35968735,-0.38876659,-0.33841163,-0.40855412,-0.4317817,-0.36550572,-0.52444435,-0.46527975,-0.43124138,-0.63290932,-0.70451843,-0.71831766,-0.64118488,-0.74670577,-0.78734145,-0.74410808,-0.82871805,-0.79865068,-0.71163879,-0.65899442,-0.60871498,-0.63965408,-0.50006064,-0.41098218,-0.414787,-0.27799746,-0.21174401,-0.1265433,-0.12825838,-0.090719412,-0.054838725,-0.028155244,-0.0011991732,0.01837661,0.052059899,0.046022554,0.11196684,0.13669017,0.12328681,0.19827627,0.19878982,0.31635865,0.27549011,0.24939203,0.36500694,0.26700338,0.35589169,0.42261596,0.49922654,0.49123733,0.50685545,0.66958477,0.61605362,0.70050493,0.72094095,0.71046509,0.67864201,0.6552116,0.59693461,0.63273375,0.64456174,0.58581993,0.53295591,0.49216698,0.54345787,0.53474156,0.49365639,0.48886404,0.42343527,0.39628545,0.38949756,0.35699971,0.4176558,0.37364719,0.40311925,0.38802013,0.34236651,0.56503948,0.62665981,0.80846874,1.082001,1.2914403,1.3955501,1.6229765,1.981614,2.1544387,2.0531147,1.8642371,1.6158405,1.4323813,0.9734102,0.86213415,0.61400474,0.12728991,-0.19214011,-0.25907359,-0.30503263,-0.415476,-0.40146016,-0.35405563,-0.3870714,-0.39625323,-0.43760303,-0.36926164,-0.47843716,-0.48748674,-0.38409419,-0.42586848,-0.38469455,-0.34668808,-0.16198381,0.35530804,0.62367267,0.65084543,0.92134939,0.93914798,0.84124794,0.9149299,1.3762036,1.7658331,-0.62877799
-0.74584277,-2.3877792,-3.1059596,-3.896695,-3.955065,-3.2846113,-2.1171913,-1.4608807,-1.4014602,-0.72182054,-0.24388622,-0.1820968,-0.24475099,-0.23459608,-0.17216935,-0.28660233,-0.34534119,-0.25114406,-0.35273647,-0.35928613,-0.36923602,-0.21412424,-0.19071767,-0.31125413,-0.29805378,-0.35872885,-0.26057594,-0.23263625,-0.22769623,-0.28004563,-0.30387498,-0.15398251,-0.15299771,-0.19334517,-0.15048295,-0.18987011,-0.20516178,-0.16936218,-0.065154559,-0.060537296,-0.17317925,-0.036465416,0.044856935,-0.011697334,-0.078097114,-0.013894812,0.056387211,0.14267335,0.11937557,0.1483319,0.091906383,0.17899752,0.10269113,0.075351157,0.15777073,0.20312215,0.14736817,0.034675122,0.079467935,0.25156474,0.13853408,0.17705674,0.2233542,0.14129507,0.25548567,0.29162702,0.30202145,0.21800692,0.17132703,0.17399697,0.38428941,0.54636406,0.33142019,0.38857159,0.43739493,0.48109845,0.56944613,0.58525059,0.59127521,0.58624272,0.69199676,0.64627514,0.68719831,0.62682771,0.58821095,0.62950349,0.64370666,0.70235228,0.66351548,0.62247064,0.57013921,0.47618498,0.46958073,0.55995685,0.61724766,0.63465092,0.74611056,1.0049298,1.1298647,1.1576725,1.5651609,1.8302456,2.0727353,2.1525084,2.2328016,2.1495086,1.858813,1.8453385,1.576743,1.2323228,0.84517507,0.30866734,0.065547473,-0.25346309,-0.097009829,-0.018630819,-0.27705846,-0.27424964,-0.24508608,-0.42145657,-0.1404411,-0.27262433,-0.39769707,-0.27226886,-0.40475815,-0.27166941,-0.37154813,-0.45305073,-0.52130477,0.23661464,1.1884602,0.99575478,0.50465162,-0.44232058,-1.417402,-1.9303865,-1.9162667,-1.8358117,-1.1921605,-1.4802903
-0.69571025,-2.1477989,-2.7374611,-3.6913222,-4.1340061,-3.5643223,-2.2957115,-1.3806219,-1.2721257,-0.90348998,-0.1190954,-0.11703867,-0.26526746,-0.095696679,-0.042525436,-0.11002612,-0.19135208,-0.14179998,0.0020760172,-0.083132412,-0.28773254,-0.13232974,-0.094781283,-0.12768742,0.0088703734,-0.14533512,-0.21786153,-0.19915469,0.015820578,0.084706149,-0.17011264,-0.0090942505,0.12991381,0.090407823,-0.035993344,0.13025313,0.088470235,-0.03544197,0.036623097,0.068806966,0.1896894,0.21794038,-0.0039937695,0.21759494,0.3561042,0.37154021,0.015567108,0.031857958,0.16846149,0.13148953,0.21266549,0.32375641,0.20480244,0.14524219,0.23690347,0.2868159,0.2233682,0.15689872,0.20051962,0.19916374,0.33280159,0.1911988,-0.068251411,-0.02365462,0.11813705,0.21915849,0.092517996,0.035687362,0.14403246,0.1483507,0.18124668,0.29614614,0.35702192,0.29655112,0.42302713,0.35098763,0.36168916,0.49691192,0.61995471,0.46494337,0.51732231,0.60500398,0.61386959,0.69270661,0.54359967,0.50786129,0.47102041,0.60220526,0.55432424,0.479255,0.58462531,0.65207587,0.48344312,0.4950541,0.47380297,0.60228522,0.8374824,0.79034452,0.88194669,1.2777879,1.5750154,1.7515577,1.9936853,2.0269483,2.199761,1.9976365,1.6466571,1.566769,1.2377161,0.89806731,0.57933568,0.19504636,-0.16387645,-0.34371309,-0.41135462,-0.40049355,-0.38278381,-0.44196193,-0.31360242,-0.56839033,-0.53014182,-0.45299439,-0.58253482,-0.4321407,-0.40239299,-0.48565892,-0.43347044,-0.41705879,-0.25903928,0.28162516,1.0089469,1.4131532,0.8781565,0.42955218,-0.85818475,-1.8978486,-2.3000739,-2.5881595,-2.2403108,-1.5762255
0.2886695,-1.2872351,-2.7879681,-4.1184524,-4.1763409,-3.6283275,-2.3675227,-1.6949169,-1.530351,-0.90295245,-0.42443564,-0.44119744,-0.40239388,-0.42421876,-0.36188524,-0.30580059,-0.40237192,-0.39419938,-0.4226842,-0.39960996,-0.44499554,-0.47096632,-0.46115897,-0.52073335,-0.58858686,-0.62321859,-0.59946817,-0.65111144,-0.8285095,-0.79260533,-0.94012267,-0.95260237,-0.89787648,-0.94694945,-0.96385308,-0.99627454,-0.95859633,-1.027729,-1.048157,-1.008597,-0.92932429,-0.76365633,-0.7343365,-0.60849532,-0.42928744,-0.48691338,-0.31160045,-0.25192248,-0.05062976,-0.069137989,-0.093896505,-0.030980258,-0.086136509,0.037693837,0.025803868,0.13523821,0.15955203,0.10122031,0.15674249,0.14424707,0.095387597,0.14956165,0.094005539,0.20051724,0.20835902,0.34294382,0.29697434,0.31820753,0.37275635,0.42909484,0.49277,0.46390961,0.56558898,0.54816972,0.56031244,0.483885,0.5465141,0.55132163,0.56822014,0.59486817,0.62220119,0.56151357,0.44188413,0.48015592,0.41754287,0.48974876,0.50375978,0.53235939,0.63865479,0.49523087,0.60454381,0.4147851,0.49210897,0.48406093,0.43240791,0.57737789,0.77567892,0.85913767,1.0958137,1.1843566,1.3256291,1.4939965,1.7811395,2.0024888,1.8496926,1.8278443,1.8422359,1.6592286,1.4161066,1.202857,0.9095315,0.60875412,0.14684419,-0.12706625,-0.080396091,-0.13873669,-0.14187976,-0.14130894,-0.3085881,-0.25647611,-0.19030649,-0.24796504,-0.14973135,-0.15293997,-0.1350167,-0.071646401,-0.068133604,-0.094096002,0.12402777,0.84264263,1.4079559,1.0452345,0.95660427,0.99547269,0.84613876,0.73711416,0.88570803,1.3621245,1.2903205,-0.24996974
-0.16859601,-2.3468404,-3.2945118,-4.4199041,-4.4052602,-3.5186748,-2.1940866,-1.5688744,-1.3273985,-0.39226517,-0.20935843,-0.27847613,-0.28531722,-0.10785712,-0.076029081,-0.095004676,-0.13790304,-0.070701822,-0.18625463,-0.1893533,-0.20535827,-0.13233811,-0.22547169,-0.24689075,-0.18980663,-0.22498309,-0.36394361,-0.45875982,-0.36784045,-0.37707955,-0.4500362,-0.48891982,-0.62620357,-0.56373645,-0.63374172,-0.71227626,-0.64262085,-0.65205319,-0.75620385,-0.78662243,-0.67801544,-0.64041785,-0.49797089,-0.54437235,-0.39833483,-0.25796882,-0.20935074,-0.13663192,0.0055502679,0.16486249,0.11369294,0.12132256,0.18620936,0.16092278,0.19956941,0.07836442,0.053247191,0.074938733,0.28660356,0.26450173,0.26734745,0.29632065,0.2713824,0.25955451,0.17976587,0.1455316,0.32017845,0.41242265,0.4556039,0.52310213,0.55860403,0.58533987,0.62533786,0.66302756,0.78032593,0.75630019,0.87957827,0.81862143,0.72898884,0.73544898,0.77495506,0.79810553,0.77531393,0.761784,0.61219935,0.53735365,0.59570983,0.55593975,0.40309987,0.39846902,0.50147973,0.36123477,0.41410636,0.37922466,0.55669834,0.51620937,0.47665348,0.67813372,0.81850678,1.0621579,1.3532076,1.5521677,1.8617273,2.0270779,1.9259326,1.9412012,1.7411912,1.4625623,1.3496833,1.1108023,0.63490404,0.17726943,-0.11205497,-0.37642053,-0.44883243,-0.538899,-0.62286308,-0.42107739,-0.3031755,-0.54484153,-0.39443335,-0.5157633,-0.44684551,-0.52259985,-0.63438624,-0.61834271,-0.54476652,-0.44000216,-0.013794202,0.9402173,1.4712023,0.79181832,0.88978378,1.1856306,0.86762188,0.14005717,-0.40483297,-0.40775192,0.077947197,-1.3996091
-1.9214751,-3.3314212,-3.7399721,-4.1653993,-3.6604292,-3.1696031,-2.0310801,-1.3020107,-1.0767202,-0.52994381,-0.25533013,-0.14520289,-0.17892788,-0.24094455,-0.24289642,-0.21574009,-0.18113864,-0.12882314,-0.16346217,-0.22179762,-0.075349566,-0.15581476,-0.019749333,-0.055850839,-0.085888532,-0.031322263,-0.12879186,-0.15254619,-0.1569336,-0.1736992,-0.14056642,-0.093759912,-0.039365707,-0.016715534,-0.092577353,-0.016737206,0.023893022,-0.025184391,0.022196715,-0.0084631191,-0.029207609,0.057456373,0.19843805,0.1676422,0.11411381,0.15518874,0.27846346,0.31268676,0.26832522,0.23515178,0.23709282,0.31204714,0.30617129,0.27957753,0.29212692,0.22514793,0.16563211,0.18909204,0.18055231,0.26677315,0.28857948,0.31298389,0.34425294,0.26517542,0.23528145,0.26323261,0.30214248,0.39700094,0.32500496,0.29761576,0.28592485,0.39758768,0.42027447,0.4857265,0.4030442,0.52097406,0.51270454,0.41020382,0.50418938,0.47600051,0.36120077,0.45190394,0.46004046,0.46610458,0.47815754,0.44376082,0.46654024,0.4455555,0.44713339,0.3315687,0.39848013,0.46352686,0.43995871,0.5747789,0.70105836,0.76623677,1.0656115,1.3310238,1.4065541,1.7829053,2.1295532,2.2256586,2.2021845,2.0744566,1.7242951,1.4944798,1.3068066,0.99714566,0.72771529,0.35122065,0.10239013,-0.13172749,-0.21948974,-0.25917381,-0.39647186,-0.36107131,-0.28465416,-0.39613394,-0.36045533,-0.25023599,-0.40405852,-0.38836687,-0.34419195,-0.1975127,-0.21504604,-0.35348283,-0.34921328,-0.17017981,0.21170438,1.0082312,1.0528918,0.5905156,-0.041602797,-1.097692,-1.6087735,-1.8075506,-1.6254223,-1.1330361,-0.78878672,-1.6318474
-0.064570105,-2.339536,-3.8481545,-4.4484541,-4.2052215,-3.6685238,-2.5423388,-1.6069792,-1.4051939,-0.88602466,-0.30091183,-0.31570665,-0.34455203,-0.3491105,-0.27904822,-0.30418988,-0.32231908,-0.30226122,-0.30802414,-0.20980136,-0.20060955,-0.30999616,-0.32727525,-0.35862099,-0.33088835,-0.31175847,-0.37947258,-0.44043143,-0.49896227,-0.47067564,-0.54949547,-0.6299381,-0.66849103,-0.63621624,-0.66572152,-0.68470932,-0.64471618,-0.65972487,-0.62074741,-0.55949264,-0.45827042,-0.40214899,-0.31571984,-0.21879029,-0.19215016,-0.028016573,0.029481559,0.031105933,0.10125903,0.10484004,0.089103873,0.039771458,0.057555537,0.07913562,0.032426692,0.082943492,0.12043889,0.10073129,0.11361126,0.058548175,0.084842381,0.12001796,0.13950862,0.30143999,0.22930884,0.27271146,0.28413982,0.2260021,0.33103757,0.33596827,0.38157848,0.45913885,0.46843285,0.50558654,0.52062865,0.55663389,0.51603428,0.49164965,0.48676747,0.46338022,0.51551245,0.47495031,0.44133279,0.50512741,0.51208375,0.46898159,0.43493588,0.35281504,0.43622364,0.42232471,0.37788428,0.46022105,0.40012873,0.41402137,0.48241714,0.66813253,0.76833904,0.91097859,1.117207,1.2795571,1.6170303,1.7748347,1.9681388,1.8964443,1.8636858,1.7503551,1.5089492,1.2575991,1.0803717,0.85701867,0.57325226,0.14659385,-0.049373867,-0.30004453,-0.26642031,-0.34011458,-0.28243994,-0.31112741,-0.29828825,-0.19609363,-0.20265538,-0.30232146,-0.32032856,-0.33643524,-0.38840505,-0.26322482,-0.29993969,-0.20193008,0.093870551,0.59191602,0.89823172,0.77151433,0.98302027,1.1036449,1.0032981,0.82034618,0.87699184,1.3583494,0.92426975,-1.4055578
0.39841022,-1.5151061,-2.5854824,-3.594544,-4.3112378,-4.1186054,-3.295202,-2.1601694,-1.5562841,-1.2891202,-0.58756319,-0.27651139,-0.31231141,-0.21699145,-0.2352446,-0.14628392,-0.16235816,-0.16842387,-0.18269288,-0.34727164,-0.26034456,-0.20308615,-0.26411308,-0.29854677,-0.32380862,-0.3201503,-0.36885374,-0.40266748,-0.33199973,-0.45966544,-0.39528406,-0.49764986,-0.66044674,-0.60859923,-0.66028441,-0.52317159,-0.48391047,-0.64575408,-0.59149442,-0.51755715,-0.48786114,-0.45503662,-0.29784647,-0.24719307,-0.13179772,-0.09640992,-0.094690777,-0.011740501,0.15390801,0.068153521,0.092719983,0.010416492,0.096975714,0.18132304,0.10860214,0.1219991,0.086552695,0.062878392,0.16599439,0.17443071,-0.0031142526,0.13575981,0.20193831,0.093834405,0.11199936,0.14303919,0.24557838,0.28574605,0.30378022,0.30085222,0.35976818,0.43632465,0.47159149,0.61232976,0.58589169,0.56889443,0.663556,0.58039761,0.61529967,0.65252034,0.73313659,0.67241391,0.71022401,0.69996866,0.64117317,0.53358887,0.47579131,0.51510931,0.47246071,0.36026733,0.37975892,0.4617206,0.43856111,0.50322872,0.51696237,0.74035749,0.94207092,1.0131314,1.1759272,1.4443542,1.6303369,1.8912249,2.1182447,2.2056467,2.096347,1.9011723,1.6508859,1.4458858,1.1754516,1.0192631,0.64649369,0.38344624,-0.025672259,-0.18149109,-0.27784612,-0.47911606,-0.41290747,-0.41309362,-0.56056259,-0.48514283,-0.48235965,-0.40873176,-0.47040532,-0.57945604,-0.52016625,-0.4270157,-0.48443575,-0.35933583,-0.061977334,0.55933781,1.3537993,1.4797297,1.0879186,0.66692304,0.1164718,-0.56211793,-0.8000154,-0.49338599,0.35639739,-0.11693228
-1.0205411,-1.3278312,-0.95140609,-0.80521594,-1.0551087,-1.1956916,-1.0551087,-0.90524503,-0.88227104,-0.85756329,-0.81313599,-0.84142499,-0.91683857,-0.92261678,-0.88227104,-0.89221215,-0.95140609,-0.95724968,-0.88227104,-0.79748178,-0.77856847,-0.79527798,-0.77856847,-0.70833554,-0.6748659,-0.71712947,-0.77856847,-0.7596074,-0.6748659,-0.593045,-0.57116332,-0.59177186,-0.64029837,-0.6801376,-0.6748659,-0.58747822,-0.46746075,-0.38956267,-0.3983257,-0.42624528,-0.3983257,-0.30164013,-0.22548808,-0.22140086,-0.2600556,-0.25264364,-0.19092056,-0.12597928,-0.12178551,-0.15936558,-0.19092056,-0.17011084,-0.12178551,-0.090283829,-0.12178551,-0.19517231,-0.2600556,-0.246422,-0.15635303,-0.051933585,-0.018082933,-0.039009989,-0.052650458,-0.04343162,-0.087217982,-0.18282869,-0.22548808,-0.13925386,-0.018082933,0.023765891,-0.018082933,-0.071975706,-0.12178551,-0.15145828,-0.12178551,-0.04259772,-0.018082933,-0.079477529,-0.12178551,-0.063492412,0.016484591,0.035988382,0.051052116,0.15051643,0.29302479,0.39395656,0.46586241,0.57643368,0.70783508,0.79769949,0.84610518,0.9300036,1.0880778,1.2945936,1.5028881,1.7103278,1.9176984,2.1068616,2.2288062,2.2806168,2.2979412,2.3281449,2.3670763,2.4186277,2.4707788,2.4734637,2.3325087,2.0762455,1.8485634,1.7611363,1.7448608,1.7017609,1.6065907,1.47353,1.2609155,0.99314133,0.77697013,0.66404955,0.53499746,0.2952332,0.016484591,-0.17836782,-0.29462313,-0.43891489,-0.64029837,-0.80318572,-0.84770352,-0.85561154,-0.95140609,-1.0817901,-1.0896762,-1.0281241,-1.0896762,-1.187758,-1.0551087,-0.85436618,-1.0551087,-1.4572784,-1.1242437,0.24965332
-0.87833144,-1.1446882,-2.1377579,-3.2099901,-3.4340228,-3.8982434,-4.0222723,-3.7180343,-3.2085554,-2.001422,-1.6175662,-1.6540116,-1.0599024,-0.56836079,-0.41223253,-0.48790793,-0.4285136,-0.18899911,-0.025972463,-0.26131416,-0.66291952,-0.48844097,-0.069067206,0.010452927,-0.60757712,-0.57889021,-0.28388029,-0.29537399,-0.28803439,-0.098149405,-0.091578752,-0.2859541,-0.35691416,-0.039665976,0.10869314,-0.091038149,-0.19215337,-0.20050031,0.14129908,0.073401789,-0.16703204,0.07502358,0.10958185,-0.12719953,-0.18076225,0.14969676,0.15905663,0.30269057,0.23021981,-0.031034855,0.15532604,0.30062892,0.27414548,0.023199244,-0.062240227,-0.019458608,0.095774993,0.19081171,0.24033555,0.017071229,0.042777972,0.04216908,0.02992333,0.22007726,0.13860989,-0.16360696,-0.44939566,-0.18938509,0.14357377,0.071455983,-0.11838357,-0.1414928,0.0020384801,0.073455521,0.12530636,0.06635655,0.015796974,-0.040852675,0.23126038,0.35742012,0.3452672,0.27366764,0.23258563,0.79380732,0.9765475,0.37578818,0.30418738,0.64644205,0.67420852,0.48645155,0.5592397,0.61839514,0.66502917,0.55991488,0.6776466,0.9048104,0.77528397,0.34270314,0.20269545,0.51851327,0.68728268,0.53246502,0.45218701,0.58092601,0.48400544,0.47669325,0.70480577,1.1315977,1.2450257,1.5046459,1.5215803,1.417761,1.7726415,1.777681,1.7628673,1.7310549,1.6005703,1.4778594,1.2748739,1.0419288,0.82329729,0.66932446,0.3026007,0.040757703,0.062490718,0.073313281,-0.25539769,-0.22977543,0.014066418,-0.071901175,-0.0052752144,-0.035701948,-0.046803713,-0.0071488358,0.1522058,0.35273761,0.17460878,-0.022709588,0.11872747,0.24039564
1.3203013,-0.68304079,-2.8271001,-3.7367837,-3.7904288,-3.6595366,-2.9537191,-1.9130206,-1.5746683,-1.2122076,-0.51861908,-0.34714375,-0.44054458,-0.44685043,-0.35162166,-0.34615299,-0.36744372,-0.46182771,-0.3897757,-0.4846678,-0.45816753,-0.38793158,-0.51303406,-0.51018732,-0.61728182,-0.59124464,-0.61600758,-0.68137975,-0.64880558,-0.73167013,-0.80528104,-0.80642577,-0.85735188,-0.87028756,-0.96948116,-1.0205144,-1.0425667,-0.98928911,-0.93701955,-0.84113105,-0.81301126,-0.81545138,-0.71161418,-0.61419458,-0.53764981,-0.45889835,-0.44781435,-0.2775138,-0.25819235,-0.17513715,-0.17633422,-0.067964226,-0.14931646,-0.16254452,-0.10437826,-0.14263682,-0.086764364,0.0029792865,-0.06949768,0.033774832,0.082582038,0.10352514,0.11429713,0.15439618,0.27084178,0.27410193,0.25729301,0.30795846,0.35226514,0.46194519,0.41986927,0.54079837,0.50482737,0.51750298,0.55871483,0.58271142,0.53614793,0.46058907,0.46455106,0.51911138,0.38720287,0.49543088,0.40763484,0.37585532,0.39785419,0.38295035,0.39570751,0.28716792,0.26783979,0.24593344,0.3040241,0.3603842,0.27228027,0.31713255,0.39485144,0.44626554,0.54139052,0.5978719,0.89776661,1.0271155,1.1313801,1.3345534,1.5597126,1.8802045,1.8504361,1.8289402,1.7240952,1.52332,1.3731223,1.1793497,0.86466497,0.58454575,0.21588952,-0.039803389,-0.20553609,-0.085662634,-0.069272468,-0.13343318,-0.10923792,-0.11893392,-0.096795215,-0.082256933,-0.12404423,-0.067459641,-0.084250783,-0.079946355,-0.11044006,-0.029467562,-0.0069181234,0.31872855,0.93091333,1.1997352,1.3456685,1.6056703,1.6586565,1.408248,1.1969485,1.2786372,2.0423992,1.233019
-2.5923624,-2.794226,-3.6129813,-3.6064923,-2.9335643,-1.7987615,-1.0535456,-0.81817773,-0.16502272,0.22462688,0.29566054,0.32928168,0.41923589,0.32688042,0.25815978,0.40782602,0.46206223,0.43328369,0.36676417,0.42745067,0.30617234,0.42304855,0.38605821,0.37379947,0.47246536,0.36776122,0.32038302,0.33527201,0.17174891,0.20047547,0.28769871,0.25485077,0.17546884,0.1699039,0.11836276,0.2369826,0.099548965,0.073522465,0.17508909,0.19687196,0.17609214,0.17391694,0.22296434,0.33070283,0.43755826,0.48634482,0.36938965,0.45762119,0.47488629,0.50709597,0.52667683,0.44531723,0.42065792,0.37707656,0.48127612,0.44890326,0.43869754,0.48938956,0.46054965,0.48475659,0.29678616,0.39086394,0.42032191,0.32798416,0.27752984,0.29490248,0.24072237,0.37714214,0.43877931,0.48528074,0.51920997,0.58236058,0.53045583,0.53876756,0.63449237,0.57663942,0.63821696,0.51204368,0.61212601,0.57283811,0.61734769,0.64878034,0.53281842,0.47358121,0.46664804,0.44993463,0.36921959,0.36689712,0.25152839,0.34637914,0.31655891,0.28292898,0.44227883,0.4870266,0.58533322,0.71450704,0.94071436,1.057656,1.2209735,1.6174902,1.7912619,1.8463598,1.7251193,1.7035061,1.4538489,1.1812823,1.0094372,0.65961374,0.41782304,0.24435884,-0.20552888,-0.57898598,-0.69545175,-0.82041437,-0.8762308,-0.94191322,-0.99248184,-0.97421418,-1.0894213,-1.1374376,-1.112638,-1.0532075,-0.95434191,-1.0145887,-1.1786685,-1.168136,-1.2006324,-1.0394093,-0.57040806,0.035258686,0.44107077,0.043143145,-0.48384071,-1.3046983,-2.0375949,-2.2686808,-2.3549479,-2.1000847,-1.7786757,-2.0069727
-1.5076736,-3.57455,-4.4780109,-4.4082752,-3.3212415,-2.1051715,-1.4810482,-1.3013622,-0.4982396,-0.2869283,-0.39003094,-0.26384158,-0.31802419,-0.18591558,-0.26978996,-0.32224541,-0.30925306,-0.39110135,-0.3032594,-0.31929186,-0.40791759,-0.42157915,-0.48138035,-0.44751848,-0.5248504,-0.46911847,-0.58260667,-0.67903585,-0.65205179,-0.84685281,-0.76668159,-0.73514832,-0.78846458,-0.85127649,-0.83700984,-0.84350094,-0.82704168,-0.87806084,-0.75509458,-0.80992101,-0.67941539,-0.58341796,-0.45742032,-0.37778498,-0.36062856,-0.23172648,-0.2368416,-0.047710649,-0.052632422,-0.074354922,-0.094408878,-0.082684152,0.0067543086,-0.082925194,-0.061498973,0.021666852,-0.04082262,0.038088286,0.04111276,-0.10716567,0.034701332,0.085703804,0.12185632,0.08889131,0.18567768,0.22990726,0.18320411,0.28684534,0.27956195,0.4185915,0.39460935,0.42764032,0.44484387,0.46829876,0.51542459,0.63629527,0.63325173,0.64466005,0.62754545,0.53004067,0.4928233,0.47920823,0.41335998,0.47562381,0.43649354,0.40684174,0.4433003,0.31768387,0.3613207,0.3610005,0.24142577,0.318115,0.3251511,0.47830471,0.47607975,0.5320627,0.79548456,0.9451694,1.104937,1.290653,1.4892172,1.7553005,1.9609181,2.0424366,1.902829,1.9028747,1.7580745,1.425782,1.2102201,0.92839739,0.64126402,0.17552516,-0.10691014,-0.13204268,-0.1658357,-0.098570541,-0.26602195,-0.2372939,-0.13768778,-0.10067464,-0.10749888,-0.2103621,-0.13010391,-0.10763115,-0.16114587,-0.10131627,-0.095255496,-0.069172156,0.15487779,0.69565622,1.2149308,1.0890684,0.98336855,1.0141238,0.9526287,0.749326,1.0070757,1.6349896,1.4933655,-0.78313438
-0.44408972,-1.800048,-2.7528434,-3.6417284,-4.2848404,-4.1606665,-3.228747,-1.864852,-1.4865879,-0.92356771,-0.27793779,-0.37497717,-0.31520978,-0.28512997,-0.21915921,-0.19643462,-0.31702644,-0.32562988,-0.1838822,-0.25397946,-0.24837153,-0.2999421,-0.29405283,-0.21298461,-0.25508412,-0.30789973,-0.40616428,-0.25118718,-0.11198733,-0.23074522,-0.13729772,-0.16122598,-0.14483879,-0.084613286,-0.19864935,-0.2058287,-0.21901074,-0.19666972,-0.16789962,-0.20942578,-0.1313712,-0.15828991,-0.12239414,0.040519844,0.045756846,0.076809238,0.13493154,0.073990094,0.207637,0.24547903,0.28918204,0.31111149,0.32363233,0.37935438,0.2270867,0.13232874,0.14124836,0.14764057,0.27774322,0.27221851,0.29516134,0.21006166,0.14493947,0.098720993,0.15084385,0.079263237,0.10598884,0.18104358,0.28423912,0.22921453,0.26880815,0.37191582,0.32222265,0.40702068,0.56920002,0.56059114,0.50973594,0.48855526,0.52406386,0.55626335,0.52973802,0.58852245,0.63159755,0.62381477,0.5504967,0.66312165,0.6507448,0.41406946,0.54849828,0.74262585,0.62550268,0.60214772,0.52637495,0.42279083,0.55038846,0.58822569,0.65237436,0.75910043,0.90109286,1.0473647,1.3430801,1.7669905,1.9730904,1.9971502,2.0065702,2.0075792,1.6997715,1.4405568,1.2627135,0.86236872,0.72255912,0.3246074,-0.026376751,-0.15301992,-0.21676901,-0.24209247,-0.29364826,-0.21796238,-0.31660801,-0.37222469,-0.34997668,-0.20983143,-0.21792188,-0.28945321,-0.27626473,-0.18045222,-0.19819394,-0.1896975,0.12777417,0.66512681,1.5144745,1.4377676,0.8197104,0.0020990438,-1.1681501,-1.8669498,-1.9477849,-1.7465633,-0.84445067,-0.85944267
-1.5643571,-4.3642404,-4.8325757,-4.7368158,-3.6917503,-2.2336385,-1.4800214,-1.1236329,-0.16568815,-0.032475111,-0.068155611,-0.061479205,0.068666189,-0.026911789,0.010439193,0.030755255,-0.056627828,-0.071236002,-0.079503542,-0.090854644,-0.12410041,-0.11251988,-0.24308235,-0.18506267,-0.16438536,-0.24047798,-0.30941761,-0.42689735,-0.46666074,-0.62366163,-0.60377012,-0.63124309,-0.6689489,-0.63959636,-0.82620619,-0.88068983,-0.88614205,-0.82382487,-0.93702692,-0.84269593,-0.82624284,-0.72902264,-0.59543085,-0.55230446,-0.48087317,-0.36125178,-0.21932659,-0.081325093,-0.023300527,0.087735603,0.134548,0.20259651,0.19317379,0.22042448,0.2192266,0.11693092,0.17833058,0.25267774,0.27522944,0.32119755,0.40208544,0.32446146,0.38405655,0.47889703,0.44731559,0.52049222,0.50169508,0.60574652,0.52769509,0.5466023,0.6186707,0.63585305,0.67102468,0.65590292,0.79531658,0.73854209,0.67762706,0.74420573,0.72467346,0.70617958,0.59229163,0.5158997,0.65009608,0.61977677,0.54705133,0.5569322,0.44817712,0.42191206,0.45738982,0.52637205,0.43187673,0.41033198,0.40432229,0.31327322,0.32058733,0.33162684,0.38739683,0.3847071,0.40598556,0.46172262,0.40943972,0.4520563,0.38884586,0.66823377,1.0697784,1.2966491,1.2621407,1.0794477,0.83984446,0.90974029,0.65415577,0.57637918,0.60625549,0.33142894,0.078576446,-0.19035371,-0.22410707,-0.15484759,-0.084487603,-0.20653779,-0.25291038,-0.27661337,-0.27524132,-0.27134281,-0.1699997,-0.20694505,-0.11966628,-0.16395926,0.019882739,0.75676278,1.5937599,1.6147283,1.4560858,1.1637078,1.0443971,0.77590862,0.57299465,0.72518053,0.66022951,-2.4308502
-2.5512038,-4.4269487,-4.0045516,-3.4368356,-1.9680585,-1.5276149,-1.3480262,-0.57811485,-0.30828132,-0.29162783,-0.28877344,-0.26389486,-0.31549759,-0.31004879,-0.34893927,-0.35308887,-0.29612748,-0.36254577,-0.40687961,-0.4988949,-0.51261728,-0.51300679,-0.6076255,-0.67708027,-0.62915346,-0.72867041,-0.78607186,-0.82715098,-0.86946576,-0.87311251,-0.96419531,-1.0410284,-0.99318452,-1.0521168,-1.1375849,-1.1377808,-1.1587284,-1.1276053,-1.1053096,-1.0686074,-1.0417798,-0.97658291,-0.92864136,-0.81266919,-0.81196188,-0.59511004,-0.56211439,-0.49918638,-0.43094529,-0.3520554,-0.23564891,-0.21784352,-0.12658101,-0.043987797,0.020969761,0.0077911308,0.023599194,0.19398547,0.19742689,0.23647485,0.23789316,0.36688703,0.3949087,0.44378228,0.49352372,0.58430155,0.66313632,0.79058402,0.82560728,0.83887696,0.84912769,0.90103455,0.86856423,0.90123769,0.94643659,0.89354017,0.87402414,0.89622153,0.80122144,0.8355824,0.82726673,0.74094816,0.72683546,0.65945956,0.66035545,0.58440569,0.60955267,0.56624097,0.58649504,0.54980926,0.4812937,0.43061148,0.50892953,0.42697341,0.39526303,0.36183473,0.42094127,0.42281906,0.59244076,0.74869161,0.95940237,1.2752352,1.3085757,1.3897562,1.7010045,1.8103461,1.6948985,1.6934648,1.5380091,1.3876138,1.1742825,0.95207181,0.69343542,0.17942545,-0.047883852,-0.15441757,-0.18848658,-0.11171175,-0.20799375,-0.21047829,-0.16481466,-0.1058682,-0.12518703,-0.14023353,-0.12641257,-0.13139669,-0.069410611,-0.0024024033,-0.080528919,0.0069698504,0.4003666,1.0702464,1.2921058,1.1385887,1.0959025,0.75796921,0.63320814,0.51119066,1.2139337,-1.0675248
-0.9287353,-2.2027215,-3.2215274,-3.824792,-4.0678384,-3.8709295,-3.5072798,-2.554275,-1.4259159,-1.0368603,-0.73533271,-0.23890616,0.040810507,0.061933361,0.068381339,0.026975311,0.0059921674,0.010962843,0.044597149,0.050165994,0.03613617,0.014807491,0.11886093,-0.027397093,0.050245319,0.055482442,0.06978003,0.092527855,-0.026496953,-0.015878177,0.045078119,0.08552239,0.097958956,0.035381899,0.037418693,0.13658953,0.10866486,0.1308953,0.14549002,0.070388693,0.064226203,0.045289089,0.041650128,0.082916271,0.1557213,0.25812772,0.20753732,0.25954022,0.30351847,0.23996006,0.26071242,0.29982256,0.30098221,0.31921319,0.28811928,0.20015519,0.19632278,0.10700603,0.003072762,-0.066830924,0.076785575,0.050596327,0.060777833,0.13388407,-0.096196558,-0.24114493,-0.15732745,-0.20064394,-0.13828361,-0.048219254,0.02591301,-0.068330757,-0.090065538,-0.026032352,0.015855821,0.022213117,0.083676387,0.13226586,0.1700133,0.21357627,0.18649423,0.22190717,0.3508702,0.41176825,0.35931371,0.33226706,0.3669513,0.41207532,0.54531241,0.49148551,0.55827632,0.65822829,0.70496302,0.82360068,0.87544251,1.0964474,1.3404631,1.7493406,2.0404138,2.2460045,2.3103454,2.0474108,1.695344,1.7599183,1.4557471,1.1197491,0.92280281,0.55958046,0.1814113,-0.11383636,-0.18008002,-0.34658489,-0.30847854,-0.32881091,-0.39145999,-0.34909606,-0.37669919,-0.44628002,-0.4584225,-0.44153549,-0.42488425,-0.30981887,-0.38892861,-0.2889456,-0.24864795,-0.29973948,-0.21082512,0.085548157,0.80506732,1.3406187,1.2355486,1.1223985,0.90717117,0.22926409,-0.17925067,-0.7116834,-1.0710125,-1.1375007,-0.64295585,-1.3366107
0.25509971,-1.8325271,-3.0302586,-4.0440929,-4.2216368,-3.1209272,-2.194203,-1.7942353,-1.4117122,-0.48499329,-0.48523444,-0.55355201,-0.5072027,-0.51471695,-0.46580431,-0.49416067,-0.42255774,-0.4422345,-0.45770672,-0.47670923,-0.53376528,-0.65914235,-0.54940075,-0.60129266,-0.65236514,-0.60638776,-0.74119242,-0.71987801,-0.77937144,-0.90782326,-1.0358298,-0.88893457,-1.0356105,-1.018733,-1.1067291,-1.0724616,-0.98914036,-1.0942295,-1.0342301,-0.99124946,-0.93234967,-0.87931207,-0.75379842,-0.64337539,-0.45794088,-0.32955481,-0.30542825,-0.20618207,-0.21456157,-0.10890229,-0.13500475,-0.081642408,-0.035656572,-0.02356629,0.031592324,-0.069621553,0.033813318,0.11453693,0.085223359,0.068192335,0.1282577,0.17674128,0.18731872,0.25836294,0.22889322,0.31263721,0.28361791,0.44464497,0.45281352,0.49947376,0.60165699,0.56024898,0.69046735,0.59814813,0.65319159,0.63969685,0.6389245,0.66278118,0.60784303,0.55003354,0.54712859,0.60592592,0.52214755,0.50201618,0.52736565,0.57642154,0.51452834,0.49512376,0.48687011,0.44371037,0.53944938,0.45048552,0.40008881,0.46347992,0.51968236,0.49110184,0.4949269,0.46343618,0.53247569,0.70393175,0.91987542,1.1139683,1.2402146,1.4136518,1.6171477,1.9660321,2.0150283,1.920906,1.9716969,1.7107904,1.5113919,1.1774596,0.91283371,0.48234662,0.11803082,0.029765545,-0.0066384015,-0.064246439,-0.0048563568,-0.083906273,-0.091940702,-0.099432624,-0.096072703,-0.07327669,-0.098869511,0.0022574974,-0.09798963,0.021369088,0.0052128326,0.11995038,0.60232964,1.1892847,1.0783943,0.76992596,0.91752217,0.79924806,0.84326542,0.87199803,1.4757226,1.004231
-1.4434615,-3.4847545,-3.8226918,-4.5710476,-4.6336582,-3.9635833,-2.5401877,-1.6251918,-1.379051,-0.34204512,-0.058470369,-0.20635558,-0.10951884,-0.11960479,-0.095229595,-0.17603258,-0.060485667,-0.046987659,-0.23177325,-0.19060287,-0.16996589,-0.14579313,-0.17253292,-0.20178678,-0.26458431,-0.27488917,-0.26775522,-0.29241144,-0.34805907,-0.3164132,-0.3345692,-0.27667651,-0.25083692,-0.45281331,-0.53254683,-0.42148755,-0.43948219,-0.42906727,-0.35585396,-0.3265784,-0.10851875,-0.086738052,-0.082996861,0.14533519,0.10869258,0.22922886,0.37045353,0.35057515,0.24516354,0.26258348,0.31466785,0.33408447,0.30013363,0.21810537,0.20169541,0.24786527,0.2650287,0.3600365,0.28088343,0.23045697,0.10541585,0.12540207,0.14607646,0.3065264,0.25917377,0.23936959,0.32196378,0.34958658,0.40657028,0.44991006,0.44907327,0.5721051,0.63247717,0.68669948,0.72343346,0.5966262,0.71058328,0.56825605,0.6087952,0.69138582,0.55704313,0.49388577,0.55549505,0.52658326,0.37172069,0.41802456,0.36731721,0.40876821,0.50218288,0.42560762,0.20800608,0.30019935,0.34998763,0.35137731,0.37483488,0.31105175,0.30776923,0.34380886,0.38912178,0.39599025,0.35965707,0.41543427,0.50142738,0.56138382,0.647599,0.98947429,1.2949164,1.262592,1.157875,0.76146804,0.61157676,0.49848016,0.4930953,0.46305706,0.19595179,0.027126044,-0.16298239,-0.31658317,-0.46096661,-0.39614906,-0.50068621,-0.30076122,-0.23224134,-0.25075468,-0.22235385,-0.36503627,-0.23554161,-0.26837506,-0.25840756,-0.19457333,-0.027435747,0.65406259,1.6417263,1.9362866,2.0411826,2.0232182,1.531697,0.19365446,-0.67187508,-1.1183235
-0.7209994,-2.5652911,-4.0089174,-4.9440794,-4.2423484,-2.8441103,-1.8024182,-1.7049477,-1.3512557,-0.40323882,-0.31478689,-0.30124141,-0.33823518,-0.24457528,-0.23578896,-0.24229718,-0.18503964,-0.17506265,-0.1857127,-0.14464853,-0.23094263,-0.2624214,-0.28053698,-0.28443872,-0.28605191,-0.39526266,-0.4272204,-0.51004456,-0.52889177,-0.43713866,-0.57297081,-0.56128577,-0.56699178,-0.68030147,-0.71316036,-0.62674075,-0.72473689,-0.66183801,-0.60944587,-0.58775546,-0.5054704,-0.41096206,-0.39574569,-0.2321608,-0.21755384,-0.01380117,-0.016520969,-0.10091902,0.11919432,0.18598283,0.14719268,0.033695508,0.16655485,0.24573144,0.17858623,0.29958761,0.20446117,0.28178299,0.18433125,0.3564123,0.42062858,0.32104054,0.35076561,0.31481661,0.53437473,0.47016108,0.51003315,0.53316511,0.47489139,0.54167415,0.50877145,0.63934378,0.72624546,0.54282841,0.62856649,0.61384692,0.63172563,0.56858814,0.46250654,0.51397398,0.40317453,0.56144085,0.41903205,0.46426185,0.44879346,0.40534861,0.4768127,0.39721094,0.43380718,0.45645925,0.32078422,0.37139011,0.36982978,0.42161496,0.44129467,0.37700181,0.48367,0.58060004,0.89708441,1.0719236,1.2911379,1.40003,1.6990631,1.9580109,2.0684191,1.8701469,1.8160684,1.5827255,1.2791459,1.1716298,0.91728746,0.52515203,-0.030255218,-0.28162896,-0.32218173,-0.38227467,-0.3963098,-0.51755418,-0.50739195,-0.48557406,-0.5234922,-0.5722247,-0.51722263,-0.53794134,-0.57593652,-0.50049506,-0.37820665,-0.44211675,-0.27139102,0.034392841,0.85515532,1.3573327,1.3093351,1.2466464,0.96171363,0.23117067,-0.17347132,-0.20511558,0.65795284,-0.3284224
-0.02121898,-2.5112297,-3.8787295,-4.3516393,-3.9477076,-3.1357258,-2.1253538,-1.6375943,-1.3649149,-0.57865693,-0.44304067,-0.38706733,-0.41313641,-0.43498378,-0.40348455,-0.50356444,-0.44855135,-0.4581837,-0.51338793,-0.47277242,-0.4794455,-0.53224077,-0.62197815,-0.54777325,-0.51766939,-0.61542012,-0.61835684,-0.65456152,-0.72872849,-0.70855374,-0.76834767,-0.80195668,-0.7937852,-0.85211333,-0.83114148,-0.86075407,-0.7510564,-0.65587843,-0.71297035,-0.66528921,-0.5832684,-0.46187014,-0.31672222,-0.24889422,-0.29270151,-0.22733961,-0.071721611,-0.068828748,-0.013470791,-0.024250137,0.024850278,0.10100396,0.18021245,0.13884477,0.21558878,0.074210466,0.16595923,0.19155855,0.17153058,0.21763756,0.25409424,0.19435337,0.15786345,0.33190894,0.35409729,0.34290144,0.43950647,0.46463755,0.52379454,0.51568143,0.57468955,0.51635416,0.57222967,0.54163675,0.51582252,0.55481507,0.59206688,0.57353746,0.52937185,0.58870195,0.4958714,0.53509707,0.47441429,0.41614071,0.53214252,0.48125138,0.44484156,0.487461,0.43117685,0.50100562,0.41245303,0.33583943,0.35790639,0.38244653,0.40118744,0.38887967,0.60181222,0.7373842,0.86621676,1.0307376,1.1977122,1.4195249,1.6750965,1.8568758,1.7325436,1.7223306,1.5353058,1.3667846,1.1164161,0.83444317,0.51494945,0.19345822,-0.035006889,-0.040309665,-0.13861813,-0.20666815,-0.15852682,-0.14370129,-0.15010012,-0.18399532,-0.14075819,-0.19840465,-0.091375729,-0.13385522,-0.19955797,-0.16185515,-0.074382913,-0.12916082,0.21044042,0.80868474,1.0893881,1.0760307,1.3707348,1.5423971,1.3090408,0.8898345,1.2661309,1.7137687,0.69896008,-1.8302705
-0.99617901,-3.8769665,-4.7675259,-4.5993666,-3.6790513,-2.424451,-1.5180434,-1.4559032,-0.55624828,-0.15218515,-0.18067476,-0.24729865,-0.22294792,-0.0095069033,-0.13781277,-0.27173479,-0.26808716,-0.2320949,-0.26438614,-0.26403627,-0.27515831,-0.39984737,-0.45616503,-0.44366745,-0.3961321,-0.46563678,-0.39993423,-0.44085294,-0.51734698,-0.44803985,-0.55540448,-0.54037008,-0.51917858,-0.65745486,-0.72332708,-0.72866583,-0.66895345,-0.61221508,-0.53579163,-0.55990824,-0.56503596,-0.63228578,-0.33284889,-0.31001835,-0.2285696,-0.0784751,-0.094465372,-0.023084866,0.0001425102,-0.030604433,-0.086970612,-0.047530854,0.054185351,-0.03470959,-0.00056242666,0.051709888,0.14959129,0.064680884,0.03540262,0.0044128325,0.052685292,0.14091134,0.11940716,0.15797101,0.24271611,0.37758696,0.20322992,0.34096031,0.43023082,0.56223768,0.53573599,0.52386529,0.60532695,0.65644689,0.64605797,0.73852861,0.7975758,0.66054073,0.65445935,0.67416871,0.6359498,0.62611866,0.55454717,0.49769151,0.61152679,0.62149249,0.53078154,0.467185,0.35015717,0.37418008,0.27980047,0.36048422,0.37851673,0.2570572,0.34539815,0.409568,0.46481191,0.63780859,0.89812972,1.0067846,1.1760003,1.3426412,1.6417202,2.0279,1.9743614,1.8764562,1.9707574,1.6189055,1.5595791,1.2131312,0.77479184,0.41392637,0.0072103361,-0.24302964,-0.32454488,-0.14272252,-0.18542823,-0.38137456,-0.41896147,-0.39987019,-0.20659808,-0.29434563,-0.36394225,-0.25949423,-0.33320953,-0.13067579,-0.24738636,-0.20147023,-0.10244017,0.0049079382,0.73341128,1.5000031,1.3057945,1.0536895,0.82622644,0.2716385,-0.12766258,-0.21617677,0.50426404,-0.073028574
-0.98238684,-2.7187364,-3.370811,-4.0385839,-3.8656118,-3.1613892,-2.1064373,-1.1478816,-0.9299926,-0.45082612,0.039035883,0.2223937,0.3126215,0.23302842,0.21777902,0.26559256,0.25414685,0.26830585,0.16045935,0.21958255,0.17215961,0.21702891,0.17852004,0.37593345,0.17504119,0.18611216,0.19103059,0.05002059,0.098829063,0.1411912,0.14640999,0.16042499,0.054980732,-0.014318277,-0.14659341,-0.017163013,0.066791307,-0.010016917,-0.084932889,0.029367625,0.01703922,0.005664765,0.15244263,0.12863751,0.24424552,0.25145267,0.19655898,0.23932592,0.28319874,0.30138561,0.28454126,0.26666708,0.1826035,0.15227528,0.20520505,0.20195855,0.16308608,0.11310891,0.084118524,0.16219341,0.14191945,-0.01186797,0.10340279,0.22950659,0.13501905,0.17742586,0.14768717,0.12412563,0.24791094,0.234852,0.41836915,0.41065216,0.42275286,0.44035163,0.49881822,0.61143836,0.53278281,0.45894024,0.56062815,0.55484718,0.56985433,0.56738701,0.57909651,0.58544087,0.45335502,0.46769714,0.44977224,0.34407065,0.39087315,0.32884789,0.35373272,0.29823835,0.29304226,0.3650029,0.53547786,0.61049532,0.92360913,1.072776,1.2463957,1.4907091,1.745888,2.0022669,1.9488282,1.8826408,1.7791249,1.4658097,1.29252,1.013346,0.68556834,0.53547042,0.17817484,-0.1873342,-0.45569018,-0.6573386,-0.60427069,-0.6009935,-0.62940648,-0.62470326,-0.79355096,-0.65148297,-0.67800066,-0.83417715,-0.73061797,-0.74294852,-0.80448291,-0.76734277,-0.63226262,-0.43878065,0.11959859,1.1031575,1.5070299,1.0928567,0.64429086,-0.4280988,-1.3185017,-1.9605651,-2.112106,-1.8687754,-1.3632401,-2.504152
0.59291906,0.81193161,0.65542049,-0.068896368,-1.066741,-1.7550365,-2.0617431,-1.8325988,-1.6193669,-1.5656034,-1.3060537,-0.82339757,-0.66947318,-0.55630737,-0.2315475,-0.10902761,-0.081662304,-0.010870226,-0.047793219,-0.086197108,-0.042934889,-0.11259957,-0.048294416,-0.17712269,-0.21755048,-0.16787522,-0.17180678,-0.20969074,-0.35195145,-0.29761636,-0.22962651,-0.20298998,-0.21401652,-0.26503062,-0.30435837,-0.27708215,-0.14884497,-0.20120057,-0.39773582,-0.46276262,-0.35801522,-0.34061186,-0.43487148,-0.5503241,-0.57034557,-0.45010685,-0.58339155,-0.54788872,-0.43113286,-0.49583473,-0.39762977,-0.35406978,-0.41351596,-0.37433801,-0.37467945,-0.37578675,-0.20901116,-0.14622414,-0.17375842,-0.23265182,-0.045198453,0.11074227,-0.10342193,-0.17732334,0.02736427,0.12439976,-0.057087221,-0.089531051,-0.0061594834,0.14318898,0.1339237,0.016688135,0.13149598,0.1149486,0.070796667,0.080254647,-0.030147081,0.021607584,0.059286985,0.14653342,0.13809281,0.14591733,0.045602284,0.030373633,0.16633617,0.16864236,0.1950206,0.24194802,0.22220604,0.19179494,0.23064167,0.31449537,0.36589236,0.29086949,0.31483466,0.3660436,0.36515597,0.43906644,0.48054218,0.5125164,0.58213077,0.44962616,0.4691426,0.52892975,0.76714491,0.88395185,1.0343983,1.1759346,1.2179728,1.4602417,1.7184057,1.7545971,1.7082629,1.8531333,2.0623383,2.2963219,2.4028817,2.5324535,2.6802031,2.7640174,2.4369126,1.9564061,1.9237565,1.0207076,-0.080372039,-0.40457494,-0.74090964,-0.90931187,-1.3020046,-2.1548407,-2.6194904,-2.8747824,-2.7358176,-2.2022859,-1.5842766,-0.98358019,-0.37242738,-0.16791844,-0.097383105,-0.20092658
-1.0301951,-3.4735073,-4.2025991,-4.5048823,-3.3587684,-2.1298999,-1.8072763,-1.3162154,-0.44232443,-0.26861795,-0.35609845,-0.33923791,-0.28968571,-0.36397671,-0.37160095,-0.19142285,-0.29195896,-0.29281075,-0.31844433,-0.32221872,-0.30597186,-0.37991279,-0.45386279,-0.41109498,-0.53317697,-0.49119723,-0.48082159,-0.64394693,-0.76115452,-0.79347175,-0.73912679,-0.82523035,-0.93616734,-0.93360934,-0.9398953,-0.99540006,-0.98608451,-1.0748805,-1.0292921,-0.97438603,-0.87911939,-0.76168578,-0.76981723,-0.59170431,-0.47939406,-0.47527988,-0.35897791,-0.307988,-0.2221026,-0.16163456,-0.072268196,-9.3848146e-05,-0.015091744,0.016470134,0.099536204,-0.026065228,0.052193152,0.12733652,0.046948206,0.094522056,0.12087856,-0.0086655759,0.096895309,0.057086167,0.11647023,0.33660248,0.34673184,0.31855388,0.35549229,0.34784006,0.36380141,0.53816728,0.51506979,0.55170599,0.469247,0.60449171,0.63508166,0.56883933,0.62683545,0.5811342,0.57376636,0.4690159,0.38890906,0.54262463,0.50672641,0.46352947,0.50896457,0.41968252,0.40176676,0.46091256,0.42622453,0.34695626,0.35230004,0.46203687,0.32183755,0.32433002,0.4164501,0.57616422,0.63118376,0.97820275,1.2285833,1.3614923,1.5061672,1.7422947,2.0251517,2.0522062,1.9480501,1.8586916,1.468526,1.2945888,1.1014897,0.78812269,0.47663627,-0.010344626,-0.071071482,-0.12248333,-0.13310394,-0.10149365,-0.11960205,-0.095672735,-0.099991707,-0.0014649503,-0.12394979,-0.087953129,-0.13869727,-0.068478616,-0.054173409,-0.12399249,-0.070343654,0.16584838,0.71176779,1.5155853,1.4055609,1.2465515,1.098543,0.65859621,0.80656727,0.54000634,1.4198329,0.93275481
-0.22543816,-3.0607185,-4.3298546,-4.5708344,-4.0704899,-3.1038429,-1.9333009,-1.6500379,-1.168816,-0.23424187,-0.23875955,-0.14253988,-0.24007942,-0.25930622,-0.31802642,-0.16310936,-0.1996886,-0.34503134,-0.3035943,-0.38196433,-0.33391156,-0.25273239,-0.30208865,-0.30209113,-0.41221006,-0.29387172,-0.33053808,-0.44239242,-0.65737319,-0.58657852,-0.55326811,-0.69180132,-0.66932664,-0.76949534,-0.87309272,-0.86300935,-0.88562569,-0.82619859,-0.76443148,-0.79263041,-0.76286005,-0.67887428,-0.58535781,-0.57419563,-0.51398767,-0.28083929,-0.19786138,-0.17739572,-0.0715231,-0.066076574,0.015495007,0.12331189,0.13628026,0.013781134,0.11635367,0.20178864,0.11072924,0.11275443,0.19503715,0.18872187,0.055921301,0.1572692,0.22845929,0.30134459,0.20277778,0.3642044,0.35897036,0.29125253,0.37236249,0.41143725,0.45375619,0.45333039,0.48861858,0.53047426,0.40233331,0.5536676,0.59915227,0.50673355,0.52256216,0.60893967,0.56192419,0.53208725,0.49664048,0.42967595,0.57910887,0.4991461,0.40173166,0.38446957,0.48239856,0.31976401,0.38490176,0.44795789,0.32532808,0.36304707,0.34597122,0.29656121,0.37735752,0.49252641,0.60009739,0.70856333,0.92579432,1.2240037,1.4999656,1.6408337,1.6330895,1.8995368,1.8542636,1.817235,1.7161494,1.4107749,1.1749052,0.94110161,0.53804101,0.16202642,-0.054729834,-0.19410902,-0.11338096,-0.20315628,-0.19102526,-0.082620196,-0.20728476,-0.15813453,-0.061861253,-0.10071052,-0.17848584,-0.070561779,-0.05107776,0.043754476,-0.025692604,0.26748665,0.97438881,1.3395871,1.3007997,1.0375307,0.74536236,0.64841299,0.66077827,0.61224972,0.93507488,-0.96608145
-2.1359759,-4.6894754,-4.4242106,-3.7819334,-2.5315693,-1.6569343,-1.3852175,-0.81872336,-0.16370289,-0.2636622,-0.34143225,-0.3628803,-0.33574522,-0.22594615,-0.30222654,-0.37570834,-0.4177483,-0.36837976,-0.40880081,-0.46449112,-0.47644958,-0.48080397,-0.47564742,-0.4757813,-0.57376039,-0.60524111,-0.5938595,-0.64438517,-0.64839275,-0.75576375,-0.82516521,-0.88837753,-0.84024248,-0.85286443,-0.99878631,-1.0052415,-1.10513,-1.0416052,-0.94466399,-0.95014113,-0.87894422,-0.79298302,-0.69768934,-0.57127541,-0.43536104,-0.30982199,-0.25591726,-0.15994003,-0.12179833,-0.10737247,-0.085396459,-0.094309103,0.010802449,0.014998259,-0.00088168444,-0.015416096,-0.0015973801,0.093473178,0.059974601,0.052538214,0.18057092,0.25461572,0.29895072,0.2111523,0.34952337,0.30752575,0.24761919,0.36000725,0.45210857,0.52424124,0.52213902,0.58344314,0.61404115,0.59915246,0.60426926,0.69459489,0.6188351,0.67830796,0.71501413,0.65722611,0.63043001,0.6875061,0.65602656,0.62296661,0.57632708,0.39372887,0.42518019,0.42478527,0.4171292,0.50213692,0.50676453,0.42477148,0.43957932,0.40507256,0.46681482,0.45062643,0.47348839,0.65027819,0.84774,0.96768789,1.180938,1.2770644,1.4951049,1.6792812,1.8899889,1.8515995,1.8643535,1.7039831,1.4965766,1.3203566,0.95833943,0.69259673,0.055616921,-0.1507455,-0.16837341,-0.15784249,-0.19238486,-0.15197726,-0.13451993,-0.17318776,-0.21585748,-0.20451664,-0.14422731,-0.077143514,-0.10858892,-0.11186846,-0.053955413,-0.042717766,0.079194206,0.34333891,1.1401059,1.7077007,1.5506476,1.4657199,1.3128425,0.63440355,0.22542195,-0.24141542,0.64736027,0.2483918
-0.42904055,-2.0242459,-3.6211799,-4.4803162,-4.2646842,-3.3225008,-2.1248269,-1.6311812,-1.2770733,-0.71872045,-0.53443495,-0.46262939,-0.50382564,-0.4553102,-0.51410457,-0.37880683,-0.38151521,-0.46038774,-0.46201584,-0.43502018,-0.47633008,-0.4736835,-0.52722398,-0.50099278,-0.51550522,-0.5127024,-0.5241429,-0.59369198,-0.65699184,-0.6673424,-0.72860261,-0.85926678,-0.79796099,-0.73445103,-0.81895146,-0.84123698,-0.81159921,-0.82656506,-0.81125157,-0.70323081,-0.6943938,-0.60570493,-0.54652665,-0.39062506,-0.23516437,-0.16310712,-0.1065465,-0.094718199,0.032654995,0.11097188,0.19374084,0.11544433,0.070448519,0.12845132,0.19366239,0.12622425,0.12945357,0.15985064,0.1237358,0.12915126,0.1982164,0.22519134,0.079087981,0.14664034,0.27509711,0.17803772,0.16841249,0.2793896,0.33810214,0.35406446,0.38291714,0.36124932,0.41484947,0.46387831,0.46652554,0.52628884,0.55576242,0.54612775,0.58093792,0.5815983,0.50646556,0.46940179,0.5676877,0.53884475,0.50978275,0.49101532,0.48748404,0.38164103,0.38341871,0.39581309,0.457653,0.4670262,0.46726793,0.56345176,0.63623676,0.74942786,0.95459907,0.98710932,1.1791001,1.3672935,1.6363061,1.7914966,1.870903,1.8494519,1.7886789,1.5693788,1.4712357,1.2802852,0.90804214,0.75853197,0.27562725,-0.037937174,-0.19405184,-0.24126968,-0.27169771,-0.34118801,-0.20360869,-0.30573223,-0.29064328,-0.19841827,-0.29336528,-0.23093542,-0.1758978,-0.14863555,-0.17119024,-0.093046045,-0.0077474835,0.090836652,0.51986801,1.0109772,0.98755726,0.85581151,0.97142487,0.98135343,0.98509816,0.87274514,1.2144179,1.7100653,1.3999047,-0.091187362
-1.4260705,-2.8424348,-3.6316517,-3.963395,-3.9556709,-3.6416383,-3.20374,-2.2220433,-1.3015328,-1.2066245,-0.7505066,-0.32345011,-0.23087193,-0.19984984,-0.13363416,-0.18854248,-0.19363252,-0.17170693,-0.20812939,-0.1373045,-0.020569016,-0.13610395,-0.12377753,-0.11725713,-0.19099918,-0.14623628,-0.182967,-0.18424948,-0.28048441,-0.084350822,-0.10325704,-0.18056054,0.035731674,-0.12335481,0.0012975164,-0.022069089,-0.083540791,0.0029170342,-0.12667531,-0.052351026,0.036311005,-0.041446419,0.019351332,0.056737705,0.16925412,0.22495398,0.13737251,0.22987816,0.25072305,0.32169078,0.34352609,0.28659233,0.25558223,0.32061485,0.19881771,0.22439153,0.19476393,0.27926019,0.19737846,0.17909745,0.15629828,0.14475166,0.23780563,0.093198548,0.10855014,0.22854008,0.11412832,0.15662938,0.11396787,0.13575415,0.1790156,0.19734491,0.14750835,0.20318731,0.28043556,0.28676245,0.23242674,0.31221901,0.44908264,0.29440911,0.37322423,0.41458897,0.43005472,0.4470875,0.48365581,0.48983618,0.49933178,0.4335477,0.55755003,0.62910631,0.67715015,0.80075549,0.80890451,0.81444534,1.0530361,1.3520338,1.6443738,1.871707,2.1380572,2.2721644,2.2225294,2.0518883,1.7502632,1.7002926,1.4464646,1.1594896,1.0089142,0.64156371,0.13172071,-0.050023583,-0.11919483,-0.2905336,-0.29215341,-0.35590525,-0.32834891,-0.29469393,-0.40951203,-0.33513153,-0.28989412,-0.33120236,-0.39710567,-0.36730107,-0.24476788,-0.28103337,-0.35154631,-0.34554762,-0.21024517,0.095171452,0.49193746,0.65010286,0.63230611,0.46256564,-0.028771133,-0.5079541,-0.78990227,-0.82910277,-0.37836097,0.2025086,0.14820486,-1.0638819
-0.94371861,-3.293576,-4.0602034,-4.1948318,-4.0975508,-3.4591787,-2.2619099,-1.5054486,-1.3402735,-0.62129579,-0.018926218,-0.086843741,-0.047868841,-0.01621149,-0.17100468,0.00091002556,-0.099525485,-0.078913795,-0.04423447,-0.10484054,-0.13484869,-0.038658905,-0.095704529,-0.17356516,-0.28882333,-0.29336083,-0.18541706,-0.31936415,-0.34272237,-0.42166273,-0.4326089,-0.39516029,-0.56617012,-0.42475744,-0.52060997,-0.38241467,-0.51449909,-0.47448335,-0.36850548,-0.34966191,-0.19309078,-0.20628237,-0.040638059,-0.080495011,0.018868705,0.051631807,0.058254698,0.080799842,0.13560637,0.20683605,0.1708524,0.1011038,0.19239339,0.21040131,0.050549999,0.14471544,0.16285086,0.18936172,0.14430686,0.13935597,0.25052396,0.20615369,0.21485842,0.26014666,0.2887304,0.37517835,0.33867962,0.50233379,0.51744379,0.43343124,0.48224197,0.51792094,0.5427504,0.57348888,0.57145548,0.60100025,0.58524464,0.51038808,0.58064001,0.65049694,0.51422714,0.45291107,0.46537917,0.45306416,0.45563406,0.31788768,0.3166733,0.29248549,0.33950836,0.30427335,0.304736,0.36972277,0.36480846,0.41140611,0.59633234,0.78253035,1.0504187,1.272075,1.3343149,1.629907,1.9057414,1.9711779,1.8630847,1.9132143,1.7994418,1.5156866,1.2592867,0.97497966,0.71840294,0.34990928,-0.16675883,-0.42344735,-0.54606845,-0.68726077,-0.59419038,-0.6270135,-0.65397905,-0.62639106,-0.66887483,-0.56078991,-0.63394503,-0.62856745,-0.65411557,-0.64930721,-0.59617462,-0.63661623,-0.58492537,-0.55319504,-0.28466395,0.3422664,0.69217182,0.78599904,0.92384642,0.88378515,0.83796061,0.4995301,0.62040891,0.95148373,1.2751733,-0.70760676
0.21139598,-2.1918403,-3.8269965,-4.0738462,-3.8662985,-3.1881566,-2.1186199,-1.5343774,-1.391324,-0.78666882,-0.27507589,-0.33281662,-0.3897882,-0.3059558,-0.35427567,-0.35785358,-0.3852456,-0.3785809,-0.41523121,-0.41109569,-0.38298225,-0.4012145,-0.48254706,-0.51908061,-0.51191601,-0.58361039,-0.57273715,-0.61458002,-0.67822537,-0.62515165,-0.74324943,-0.79783573,-0.8537883,-0.85272423,-0.82141374,-0.82061471,-0.87970952,-0.85450561,-0.85654677,-0.74840419,-0.63054114,-0.70635765,-0.53628341,-0.49117617,-0.4082725,-0.24738651,-0.15195064,-0.19128769,-0.094894284,-0.074257431,0.0035699593,-0.041813421,0.0097524129,0.010197379,-0.08335059,0.071615885,0.065089864,0.040498278,0.1453848,0.14269996,0.16634645,0.17811815,0.20390367,0.22460251,0.24665405,0.20895254,0.28242899,0.4035082,0.4524454,0.35446637,0.53085103,0.42415121,0.5761885,0.68438997,0.56314545,0.63394702,0.54606567,0.56560397,0.51882273,0.52135949,0.55275173,0.39239467,0.41640269,0.47788581,0.4647794,0.48009655,0.3408659,0.4138619,0.36967707,0.45169743,0.37604088,0.41398057,0.41534155,0.40500033,0.50561896,0.75849715,0.93488355,1.1279474,1.1382401,1.3535004,1.631832,1.9400562,2.0263609,1.869586,1.8985124,1.7773585,1.5127794,1.3197751,1.0306391,0.73254265,0.27347009,-0.052130585,-0.13478987,-0.33575551,-0.25669431,-0.31894951,-0.3858464,-0.29532987,-0.30048569,-0.29364064,-0.31128362,-0.22939952,-0.32277407,-0.2981563,-0.24286334,-0.33769647,-0.25863032,-0.23016567,-0.016396916,0.35495214,0.86641649,0.86077552,0.983959,1.2235701,1.3544033,1.1485197,1.1135001,1.5285636,2.0433823,0.19687016
-2.0724192,-4.1667703,-4.6389478,-4.3632649,-3.0846092,-1.9777213,-1.5567195,-1.1828569,-0.32531413,-0.23973306,-0.34727214,-0.33065312,-0.28696131,-0.35953463,-0.46104027,-0.27756564,-0.26077161,-0.24208057,-0.32741001,-0.45206218,-0.25413314,-0.33086794,-0.34576691,-0.38476748,-0.53391385,-0.46307364,-0.57648214,-0.51426188,-0.43482003,-0.57632803,-0.71230177,-0.63407252,-0.66479646,-0.73160113,-0.8682255,-0.84764615,-0.80473578,-0.75934254,-0.6929521,-0.61349734,-0.5152408,-0.39555674,-0.36150515,-0.31209831,-0.19846694,-0.20705256,-0.14652545,-0.07803001,-0.074356447,-0.051266788,0.016705306,-0.026957012,-0.061484636,-0.029040867,0.040292522,0.059318833,-0.060841871,-0.10955815,0.027478228,-0.017824392,0.052739757,0.0076029398,0.086678156,0.089655534,0.099356911,0.16161695,0.10512954,0.26088442,0.38021704,0.2550264,0.26826307,0.35841151,0.284996,0.27489273,0.42019149,0.46698905,0.35977231,0.33214329,0.35005552,0.43675793,0.44862489,0.39795978,0.38186627,0.45303838,0.26242408,0.25402096,0.28673903,0.33262558,0.40609154,0.35244383,0.33254355,0.30606443,0.26156746,0.32180778,0.36000601,0.57183549,0.73713001,1.0355592,1.0927236,1.3089941,1.6217373,1.9095074,2.04107,1.9512018,1.7995494,1.799324,1.5834017,1.2980074,1.1207185,0.8180913,0.55734515,0.1591762,-0.25603874,-0.1252861,-0.25016033,-0.21909176,-0.30943748,-0.22360222,-0.09103774,-0.10556852,-0.099677768,0.0039441781,-0.036733592,-0.11597327,-0.078048069,-0.034473769,-0.099811813,-0.0094379063,0.418479,1.031616,1.359652,1.2260376,1.3729527,1.3228983,1.0128748,0.76738247,0.79683235,1.2751901,1.3462716,-0.29502336
-0.11152229,-1.8427955,-3.0681162,-4.2285607,-4.1529367,-3.3388785,-2.089873,-1.6505399,-1.3303095,-0.51641561,-0.19637969,-0.27710302,-0.18792769,-0.30211455,-0.40225184,-0.37932125,-0.38969245,-0.30547417,-0.33218604,-0.45689961,-0.40187025,-0.50468485,-0.52801226,-0.58943018,-0.52033824,-0.51214253,-0.70293324,-0.64620029,-0.76866618,-0.96965254,-0.99946796,-0.90506372,-0.93158187,-1.0444916,-1.0840333,-1.1316985,-1.1151513,-1.0579447,-0.97406215,-0.85631779,-0.77947787,-0.61382479,-0.59911868,-0.6245899,-0.45285535,-0.25134652,-0.13468182,-0.13274763,-0.040740849,-0.15903573,-0.068005189,-0.073112078,0.014708306,0.077562395,-0.016680791,0.02314038,0.1442494,-0.0065767864,0.11429654,0.16246104,0.090614142,0.12494909,0.16209522,0.27593404,0.15898725,0.25445284,0.28238924,0.27787525,0.44716598,0.49656132,0.53274706,0.5150491,0.56519442,0.54201681,0.63831012,0.53020548,0.38274775,0.4165744,0.4441331,0.52180933,0.47297951,0.46114169,0.39501497,0.45966611,0.45047372,0.51100867,0.39016191,0.33317504,0.37673983,0.38154172,0.26115094,0.30765232,0.35941678,0.32618972,0.43036214,0.37065677,0.58976822,0.78428145,0.99165988,1.1040846,1.2333666,1.5051242,1.7591153,1.924756,1.9736024,1.8706297,1.5695986,1.4768257,1.3513062,1.1361738,0.89031369,0.48250446,0.1415131,0.021813516,-0.16713965,-0.20243092,-0.18414871,-0.24295751,-0.16075306,-0.13337185,-0.074986472,-0.13921008,-0.13891298,-0.10118693,-0.093375856,-0.046854457,-0.056934146,0.0021488301,0.32653986,0.94611712,1.4647507,1.2627543,1.2751977,1.4412511,1.2539222,1.0213257,1.1917218,1.6372937,1.131241,-0.74616525
0.058070966,-3.0350933,-4.2631473,-4.995203,-4.6080761,-3.3699138,-1.9955835,-1.661728,-0.86604297,-0.10791372,-0.15469728,-0.12642143,-0.21559264,-0.2119315,-0.085008089,-0.15787061,-0.23871902,-0.26610731,-0.21790507,-0.3137038,-0.25771283,-0.34132408,-0.26335048,-0.31895934,-0.36017948,-0.45262985,-0.55576455,-0.48111737,-0.48239012,-0.67696805,-0.72665636,-0.72629494,-0.84112238,-0.77582693,-0.83099822,-0.83954252,-0.88876141,-0.78602429,-0.7538951,-0.69723691,-0.66691281,-0.61424105,-0.42298826,-0.26578546,-0.21121156,-0.19397457,-0.050070054,-0.0093307392,0.056736907,-0.0062495361,0.052415045,-0.030197015,0.11666419,0.12005737,0.061369685,0.13358292,0.1050629,0.11200064,0.069851852,0.24289729,0.2381147,0.20679363,0.28890863,0.2166478,0.29465761,0.3750922,0.51488448,0.49384608,0.56080538,0.53177912,0.58517268,0.62020769,0.7030369,0.7190284,0.66200521,0.79514362,0.65838486,0.6197585,0.68036343,0.55047644,0.64567578,0.55634778,0.64893143,0.52989703,0.51927742,0.53076267,0.45525312,0.44211188,0.49403038,0.37038983,0.37616842,0.44312276,0.3965849,0.35450597,0.28266805,0.30852998,0.40115213,0.26863853,0.39204176,0.37247226,0.44797677,0.46180047,0.48667927,0.58731928,0.6701305,0.89790334,1.3556091,1.538407,1.5759063,1.3063142,1.2106691,1.1548643,0.94540111,1.0687015,0.72401616,0.3780089,-0.005811665,-0.06333367,-0.099538574,-0.055804634,-0.055842979,-0.0065841602,-0.11532857,-0.19279133,-0.049813991,-0.065414037,-0.073050467,-0.0098379254,-0.016852136,0.10349879,0.84028742,1.8257561,1.859326,1.2909469,0.60035613,0.12562732,0.062974987,-0.1061455,0.87258694,-0.28892257
-0.82895519,-3.3291169,-4.5501376,-4.5726484,-4.0361007,-2.9649402,-1.7246219,-1.474945,-1.1835144,-0.35961009,-0.19080079,-0.25736067,-0.31505585,-0.30768192,-0.24072038,-0.26431307,-0.21312904,-0.2278177,-0.1948346,-0.18563359,-0.33183028,-0.34663131,-0.29625556,-0.28846285,-0.36910826,-0.32497523,-0.31150553,-0.37417222,-0.4306699,-0.41844912,-0.38207481,-0.51025381,-0.5478861,-0.54064159,-0.59059772,-0.6038197,-0.58589505,-0.5791163,-0.44797049,-0.46054018,-0.44961851,-0.40056143,-0.28484342,-0.26990002,-0.23959049,-0.1771072,0.00020835626,0.026820156,0.0073988814,0.16810368,0.10982397,0.10078526,0.10248766,0.13270226,0.22306284,0.11436372,0.083711591,0.21141629,0.17956438,0.2199089,0.14952044,0.25160816,0.27313783,0.18419433,0.21022999,0.34438736,0.38809856,0.3878581,0.47343211,0.57025206,0.53267764,0.55549026,0.60140904,0.65154478,0.6863974,0.67902498,0.6640679,0.6076639,0.62919207,0.63643016,0.57139265,0.50578366,0.57767391,0.53310793,0.44798487,0.48161042,0.51091513,0.50065276,0.46053404,0.47282714,0.39855323,0.33895326,0.46590275,0.46861545,0.56243702,0.73431754,0.847294,0.94344608,1.2201594,1.3748188,1.5566871,1.8241507,1.8783229,1.8208076,1.8516946,1.7351889,1.5330957,1.2977689,0.98482119,0.60056072,0.30130437,-0.078168193,-0.43132032,-0.35404385,-0.48150488,-0.38105134,-0.47466269,-0.57173384,-0.54499513,-0.61180456,-0.54352607,-0.53417499,-0.52767507,-0.53477718,-0.55793567,-0.48255697,-0.43165257,-0.27175931,-0.10210301,0.54632936,0.87098781,0.69003545,0.57220181,0.61454319,0.43017327,0.23882719,0.36876217,0.88220397,1.5044089,0.22303012
-1.5074591,-4.0451,-4.5602039,-4.2642007,-2.9431594,-1.9252879,-1.6939065,-1.2328064,-0.47306574,-0.35843606,-0.42709185,-0.35267759,-0.42484138,-0.39049261,-0.32798662,-0.34731729,-0.3761346,-0.46861222,-0.44242427,-0.51602198,-0.51835063,-0.49887673,-0.55449879,-0.54072837,-0.65135609,-0.60609555,-0.66038671,-0.84490316,-0.86453762,-0.86148255,-0.81706132,-0.92848287,-0.95215524,-0.93532004,-0.93865921,-0.89048561,-0.86208406,-0.84188784,-0.71716861,-0.64550183,-0.56658019,-0.5162835,-0.42504438,-0.28402822,-0.26527083,-0.068002769,0.14934938,0.064560804,0.036973569,0.043109835,0.07146767,0.10470711,0.15793656,0.15019216,0.15955244,0.22877871,0.26023581,0.34187636,0.24807119,0.23772895,0.29361997,0.28286683,0.3487291,0.41395176,0.31736082,0.40958402,0.44071143,0.47471995,0.58921486,0.47282326,0.57145392,0.67125653,0.66227938,0.67675122,0.63315451,0.64563261,0.53908549,0.6385491,0.64796785,0.56072645,0.58324014,0.5763252,0.46217539,0.5429639,0.46512952,0.41993388,0.43778967,0.49942099,0.37397305,0.43304984,0.38457567,0.39811856,0.37959642,0.34076483,0.47892762,0.58190398,0.64539083,0.79367976,0.98742685,1.1657181,1.3702907,1.6875276,1.8970788,1.8938641,1.8747096,1.7734682,1.5958412,1.38046,1.2268435,0.88028525,0.52372124,0.21003084,-0.12825165,-0.26267997,-0.22767573,-0.30842669,-0.32351253,-0.29640851,-0.29671437,-0.24791408,-0.38139196,-0.32192182,-0.29931574,-0.35853392,-0.38034096,-0.35042262,-0.22252223,-0.14675546,0.192596,0.8328154,1.1747758,1.0577011,0.96103868,0.98044371,0.82233991,0.52476267,0.84120118,1.1416411,1.1517183,-0.60499152
